timestamp,value-0,is_anomaly
0,0.24459340889530246,0
1,3.4929472044021903,0
2,6.847994068454375,0
3,-0.22420741468930083,0
4,-1.9546281708152793,0
5,1.4916367286376238,0
6,-0.778654788866562,0
7,0.061969916568213504,0
8,0.08391043999861986,0
9,-0.03546672674916113,0
10,-0.0247287265960952,0
11,-0.039625422595928605,0
12,-0.06025607528502089,0
13,0.019858800086269716,0
14,0.04012143166793407,0
15,0.001963121600889444,0
16,0.07776135200026359,0
17,-0.0359461217815071,0
18,0.11691013653925683,0
19,-0.01622800592858661,0
20,0.3013428390648841,0
21,3.5052943387154665,0
22,6.951126322640834,0
23,-0.1504370840649363,0
24,-2.00631246851829,0
25,1.6193073870956798,0
26,-0.7043459491959174,0
27,0.09878728328284561,0
28,0.07987756090736468,0
29,-0.04914085827371211,0
30,0.07498606056039382,0
31,-0.04462500694750381,0
32,0.03196794196314787,0
33,0.07707488976048628,0
34,0.11087763104605329,0
35,-0.025496600212211125,0
36,0.07555568416249446,0
37,0.006737078481376748,0
38,0.05810706787591576,0
39,-0.01763909195260265,0
40,0.3087197301250035,0
41,3.5256997880571035,0
42,6.915647625207996,0
43,-0.20140507489018106,0
44,-1.8667447989810468,0
45,1.5768101750000496,0
46,-0.7050066874018205,0
47,0.11347398882350195,0
48,0.029623638951288684,0
49,-0.027611198593449293,0
50,0.014874170121690108,0
51,-0.006140652859395371,0
52,0.0843015559838115,0
53,-0.07874517274007148,0
54,0.11886364553111141,0
55,-0.032385263167796115,0
56,-0.02856713319784761,0
57,-0.07992186488491601,0
58,0.04699211782737123,0
59,-0.007120218517737909,0
60,0.3762171524121933,0
61,3.5784512673874374,0
62,6.901520497310116,0
63,-0.3112070006417001,0
64,-1.9286410475910656,0
65,1.4939742149983595,0
66,-0.7287904763066788,0
67,0.12958426067143378,0
68,-0.05513276423143939,0
69,-0.10989327439838031,0
70,0.013606473988169304,0
71,-0.01646410723583484,0
72,-0.028597224890992458,0
73,-0.0190044329669525,0
74,-0.009555359364196384,0
75,-0.023002518376039678,0
76,0.020546377313188143,0
77,0.013677262101822157,0
78,0.027664417600360477,0
79,0.0920650503086268,0
80,0.12844722858099522,0
81,3.4368308866782695,0
82,6.818772425534865,0
83,-0.2694539079364263,0
84,-2.0065423846657975,0
85,1.5104545080350977,0
86,-0.7664204127518583,0
87,0.13136578893631143,0
88,0.02763193214134317,0
89,-0.13762728955337236,0
90,-0.015237283139547362,0
91,-0.013691683213153692,0
92,-0.04189677776881742,0
93,0.0038786145794956865,0
94,0.009673951715103518,0
95,-0.052753441746141744,0
96,-0.0005672215066472031,0
97,-0.05813747011429086,0
98,-0.035741955660611294,0
99,-0.053188761393872665,0
100,0.20747164704439847,0
101,3.472953888474388,0
102,6.828090799611765,0
103,-0.21038484021676732,0
104,-1.9933337921330216,0
105,1.5595911050709004,0
106,-0.7276591588627478,0
107,0.10117254137430982,0
108,-0.03234642483855745,0
109,-0.05228646249479649,0
110,0.013793680720603042,0
111,-0.004196818945280326,0
112,-0.024140427073212883,0
113,0.06076109974089488,0
114,-0.04833311695555013,0
115,-0.005278409388461969,0
116,0.014956268726309882,0
117,-0.09611589937996838,0
118,0.07284126930224447,0
119,0.005823856503923634,0
120,0.28881762954730295,0
121,3.516035741260587,0
122,6.835467475579984,0
123,-0.3375178076502622,0
124,-2.041316574784661,0
125,1.486695358901478,0
126,-0.7806659247042954,0
127,-0.01141186597857946,0
128,-0.0843877298245194,0
129,-0.08184575915225532,0
130,-0.07801610285794504,0
131,-0.11749725835504185,0
132,-0.039139715505715954,0
133,0.0065080571627929434,0
134,-0.08661346269724633,0
135,-0.020938941713585985,0
136,-0.12169321501808691,0
137,-0.0002818019468867894,0
138,-0.12643395160105736,0
139,-0.01121811698631079,0
140,0.22698460801157425,0
141,3.42549139542973,0
142,6.846303222314093,0
143,-0.28674640467698076,0
144,-1.9375867812368528,0
145,1.505893917750018,0
146,-0.7216842003459261,0
147,0.17430983199287362,0
148,0.03096819195468315,0
149,-0.009441744275993563,0
150,0.06008647336463124,0
151,-0.01566751373977025,0
152,-0.03562405936823017,0
153,-0.03526210927337763,0
154,-0.0259313304091499,0
155,0.06946197720606448,0
156,-0.11512986954953777,0
157,0.00873541762500275,0
158,-0.07487676018884415,0
159,-0.0721531925650705,0
160,0.2751009622079768,0
161,3.463280849688332,0
162,6.825614431133737,0
163,-0.31603473212035055,0
164,-1.9566112430949698,0
165,1.5042426887455536,0
166,-0.75101449035223,0
167,0.12222525431327247,0
168,-0.02299084097855209,0
169,-0.11709680983410864,0
170,-0.03503385418506623,0
171,-0.029832737388967544,0
172,-0.09146243962146698,0
173,-0.001283918465382533,0
174,-0.05183828353269091,0
175,-0.04067119051825327,0
176,-0.07050145459561072,0
177,-0.05701368462273462,0
178,-0.021425948882755327,0
179,-0.03338728327013219,0
180,0.2770674666306997,0
181,3.401337887236839,0
182,6.821713926522871,0
183,-0.3331186552422658,0
184,-1.9568162635174635,0
185,1.5596494209364749,0
186,-0.738480299836086,0
187,0.13102960832147664,0
188,0.024251045734965615,0
189,-0.07917585578273807,0
190,-0.07117754016366286,0
191,-0.04033521611438644,0
192,-0.04245301833999531,0
193,0.010035813220677783,0
194,-0.07245029440589285,0
195,-0.10547495129955374,0
196,-0.13061213012707165,0
197,-0.07271073822163487,0
198,0.00411965044471526,0
199,-0.11072646936003325,0
200,0.292145837653334,0
201,3.507322876574451,0
202,6.812417082535867,0
203,-0.2873877948784584,0
204,-2.004974332169145,0
205,1.5272804209703486,0
206,-0.7757153761867623,0
207,0.009909428900454972,0
208,-0.030753304111733857,0
209,-0.09697830110972605,0
210,-0.037259671008711984,0
211,0.023793397223216217,0
212,0.00734076248433075,0
213,-0.06511993482562031,0
214,-0.08562781136912181,0
215,-0.03599189762801468,0
216,-0.021371551668652636,0
217,-0.0723293364363844,0
218,-0.039072683762266525,0
219,-0.13187727664994012,0
220,0.24400213798937806,0
221,3.4558817706836975,0
222,6.862600783715066,0
223,-0.33552429533084227,0
224,-1.9224074198496455,0
225,1.481733965462865,0
226,-0.773608177074903,0
227,0.10882032620999861,0
228,-0.021884626314291233,0
229,-0.08088999964970431,0
230,0.042867385501501126,0
231,-0.049125090635730076,0
232,0.06597793201200473,0
233,0.008911657064395458,0
234,-0.0570227113599225,0
235,-0.03625810237351697,0
236,-0.06747535957921202,0
237,-0.007961629230381372,0
238,-0.0692664660091838,0
239,-0.08528123590237424,0
240,0.21740781794572228,0
241,3.505393496545012,0
242,6.783743188760353,0
243,-0.39308681711735816,0
244,-1.9365956288337027,0
245,1.482972421608836,0
246,-0.7884374068555283,0
247,0.18060909444551365,0
248,0.03045284422614066,0
249,-0.03629539470922603,0
250,0.0022296965137573125,0
251,-0.038279479123225234,0
252,0.019551124500180463,0
253,-0.05856986520482029,0
254,-0.03518420949229836,0
255,-0.04121841348036509,0
256,-0.03389639517923515,0
257,-0.06861843281425448,0
258,-0.10067668101638097,0
259,-0.033460424700904275,0
260,0.22014916879922408,0
261,3.4494371369425587,0
262,6.823086176218156,0
263,-0.27405334388681035,0
264,-1.971267387747663,0
265,1.6203189974587375,0
266,-0.798794637256742,0
267,0.20273594093047637,0
268,-0.00405459846318533,0
269,-0.12370915283214784,0
270,0.010278170685051363,0
271,-0.06856393947285094,0
272,0.042172416155260725,0
273,-0.03344942884728425,0
274,-0.01307774850386563,0
275,-0.036070534259025,0
276,0.0203132394878638,0
277,-0.04162836587612416,0
278,-0.07627408606574562,0
279,0.04114045123525945,0
280,0.27169640054065364,0
281,3.482580548489756,0
282,6.8997683197396675,0
283,-0.39398106835299496,0
284,-1.9753951138147956,0
285,1.532935784139311,0
286,-0.7467743651800847,0
287,0.06075233968844279,0
288,0.016166405019058694,0
289,-0.04270144264424248,0
290,-0.030897780272374997,0
291,0.027053311781904253,0
292,-0.03318787819912167,0
293,0.045501721462553456,0
294,-0.04842978088413077,0
295,-0.0704576954711953,0
296,-0.01129535552325354,0
297,-0.12284916761771367,0
298,-0.013327483403198637,0
299,0.007805072822693788,0
300,0.2813092889515574,0
301,3.485452865540974,0
302,6.8775872824135105,0
303,-0.2610543041812115,0
304,-1.951993991613079,0
305,1.6333459401457664,0
306,-0.6658605904004773,0
307,0.11976606330726798,0
308,0.008249953045363752,0
309,-0.06730433688932498,0
310,0.06698824005157071,0
311,0.030041369331163685,0
312,0.056423018578716067,0
313,0.18281950676383124,0
314,0.02835482976458988,0
315,0.015255247447564665,0
316,0.06985081704229962,0
317,-0.07206820590378313,0
318,0.026621549986357858,0
319,0.0751367349196197,0
320,0.31675401135474773,0
321,3.4584436446887477,0
322,6.885711109206315,0
323,-0.29922866992984,0
324,-1.8516477017070199,0
325,1.6502756907618117,0
326,-0.7332264747194269,0
327,0.16546309558751549,0
328,0.10600052901035562,0
329,-0.01063841529802137,0
330,0.001384989923636993,0
331,0.0409593480845637,0
332,-0.04969922555052896,0
333,0.0003828684305684461,0
334,-0.02933253638628062,0
335,0.014392299115986074,0
336,-0.010447766890745768,0
337,-0.037457947199885294,0
338,-0.03738816467728394,0
339,-0.07451491787390471,0
340,0.2800153466789008,0
341,3.640601231392987,0
342,6.851624079219291,0
343,-0.29350247599801854,0
344,-1.9572857432213464,0
345,1.528816839756252,0
346,-0.7225319598415292,0
347,0.09755675555930655,0
348,0.1620684515651486,0
349,0.0010343613091520834,0
350,0.006438217479599152,0
351,-0.03362837705022917,0
352,-0.1385408824508683,0
353,-0.057731615741627704,0
354,-0.016676281426533032,0
355,-0.04031602541386173,0
356,-0.05114730092726148,0
357,-0.06120740114816217,0
358,0.0617009426953057,0
359,0.0386334235628351,0
360,0.15146093615893264,0
361,3.5856112139891057,0
362,6.927046050697242,0
363,-0.20573328914689296,0
364,-1.976284065739395,0
365,1.5615398020084605,0
366,-0.6801290235233405,0
367,0.1789667821968752,0
368,0.04752079365882128,0
369,-0.04132191223173024,0
370,0.020798977198938105,0
371,0.0027221280364734257,0
372,0.0712344204897197,0
373,-0.05914129847991848,0
374,0.04907082681148031,0
375,-0.002316433195487414,0
376,0.019236046297943607,0
377,-0.07052784604975894,0
378,0.0033983781779928883,0
379,-0.04303148331079296,0
380,0.22743021501859953,0
381,3.5080227792809904,0
382,6.751140760719908,0
383,-0.3178593752809594,0
384,-1.9517535205164156,0
385,1.4301965878702496,0
386,-0.7790476121220129,0
387,0.11399785247745436,0
388,0.08007186472216637,0
389,-0.09534192001080621,0
390,0.06921741740341339,0
391,0.0002210614454372841,0
392,-0.01964119607293379,0
393,0.02954796728237687,0
394,-0.007751145039156363,0
395,-0.010724520656646919,0
396,-0.038656247483024424,0
397,-0.026043704789094377,0
398,-0.008110287517006418,0
399,-0.03910228062032091,0
400,0.2145323295890435,0
401,3.493939514896852,0
402,6.812113888249327,0
403,-0.3685915512455739,0
404,-1.8491737363280436,0
405,1.4813556517231574,0
406,-0.7522637842808623,0
407,0.08817429474225387,0
408,-0.014060711339087713,0
409,0.06001648359715709,0
410,0.04741174230593108,0
411,0.033994647643989774,0
412,3.735405538656672e-05,0
413,-0.011902926495444936,0
414,0.05802489886980047,0
415,-0.008066596650928938,0
416,0.07091624472976264,0
417,0.02104883036864275,0
418,0.0068691203572877856,0
419,0.023357519179549213,0
420,0.25974493150087263,0
421,3.4799380075719095,0
422,6.823932517633292,0
423,-0.38311549357232105,0
424,-1.863703326654314,0
425,1.5050825943764097,0
426,-0.7841134403675295,0
427,0.14965468570039772,0
428,0.0072193949249890615,0
429,-0.055925201148527136,0
430,0.06069530617054043,0
431,-0.0389149104131699,0
432,-0.0368728359794073,0
433,0.0929268745479539,0
434,0.05184728338231036,0
435,0.08587266550498707,0
436,0.13035878067187284,0
437,0.04226655710791799,0
438,-0.06271654439276979,0
439,-0.005176062829470043,0
440,0.40462880833615955,0
441,3.5737572964480226,0
442,6.880622081659138,0
443,-0.3245192152096738,0
444,-1.838766266967566,0
445,1.570947640269093,0
446,-0.6800130341192879,0
447,0.1407858484230515,0
448,0.13109373977680328,0
449,-0.008052287694276256,0
450,0.08082536241611275,0
451,0.07290763624426583,0
452,0.07177446646807314,0
453,0.1003977737278737,0
454,0.009970485163944526,0
455,0.12036587711578295,0
456,-0.01151230270042837,0
457,0.13943260821493855,0
458,0.07324887287685143,0
459,0.08050043415730052,0
460,0.4634462019159152,0
461,3.7021142475125997,0
462,6.959453682910262,0
463,-0.2594882747005106,0
464,-1.8566261626454517,0
465,1.5676609836387072,0
466,-0.6839377923010987,0
467,0.22177017053780043,0
468,0.09959756421977879,0
469,-0.03796497827983553,0
470,0.1421181095421557,0
471,0.005858915776246289,0
472,0.10792352537731345,0
473,0.010138788987863384,0
474,0.05742359276390856,0
475,0.062185796234535844,0
476,0.08391898703934877,0
477,0.031163035769230345,0
478,0.05804432305230995,0
479,0.08431961944548766,0
480,0.3970847490628559,0
481,3.683293738121653,0
482,6.972184051453337,0
483,-0.2511154274922422,0
484,-1.7907168420060129,0
485,1.5930867327097304,0
486,-0.6818670418996162,0
487,0.2099569176551143,0
488,0.16293999033757148,0
489,0.05161319897123458,0
490,0.0990493096133626,0
491,0.09282785518146368,0
492,0.05095306588217542,0
493,0.060551682459699024,0
494,0.055887100354914565,0
495,0.12487648188547998,0
496,0.03197997428324809,0
497,0.15399370565765869,0
498,0.03400987953217552,0
499,0.08351570581143405,0
500,0.34337971570455184,0
501,3.578475630202578,0
502,6.915117097944308,0
503,-0.2468924353115018,0
504,-1.8479682448678165,0
505,1.6665188088228393,0
506,-0.659126425845284,0
507,0.25911972660714744,0
508,0.10075344207708793,0
509,0.16735339286185782,0
510,0.06867315700188212,0
511,0.12968447347992884,0
512,0.09332513888233053,0
513,0.024921793105996806,0
514,0.16248340062958572,0
515,0.008931158826820634,0
516,0.06330320258870836,0
517,0.029212330269711553,0
518,0.12643104870840122,0
519,0.01945912399772197,0
520,0.3813202347942787,0
521,3.710781958064023,0
522,6.935511696936063,0
523,-0.2696290568877377,0
524,-1.7537187469390954,0
525,1.687597167831654,0
526,-0.6547599555950779,0
527,0.17910191453992702,0
528,0.1068305453591889,0
529,0.03835320418563298,0
530,0.09868597488571869,0
531,0.009495376273913149,0
532,0.03271704193485957,0
533,0.13371503044081873,0
534,0.06500376145087355,0
535,-0.001516183280458057,0
536,0.0690138395323339,0
537,0.15771412093801052,0
538,0.04457962116720691,0
539,0.010845251416804084,0
540,0.2891159848556552,0
541,3.5610743981011406,0
542,6.959691039117271,0
543,-0.3905005743370681,0
544,-1.8566498925256463,0
545,1.7529822365119812,0
546,-0.590795776900194,0
547,0.1292918376108166,0
548,0.04635926016033941,0
549,0.05231869830736783,0
550,0.03710980632498467,0
551,0.0014797145968556275,0
552,0.007794818346732468,0
553,0.02591945922759535,0
554,0.03481033702470189,0
555,0.0070361481140005355,0
556,0.03950554988252229,0
557,-0.07000325980352615,0
558,0.087928200145792,0
559,0.01827493759392188,0
560,0.3559152330332812,0
561,3.5930893172001106,0
562,6.800494959282615,0
563,-0.3484440777336021,0
564,-1.9293446231229567,0
565,1.5080131871692777,0
566,-0.6966678884301164,0
567,0.06072395877748327,0
568,0.10196840957436527,0
569,0.0009029951438457584,0
570,0.01267850269899013,0
571,-0.03419207073809818,0
572,-0.06986437277770995,0
573,0.03539909389602863,0
574,0.016767988945779293,0
575,0.07301915673153743,0
576,0.1133907789762315,0
577,-0.0778260681090127,0
578,-0.07879555931824858,0
579,0.016147877417799394,0
580,0.24635594874237063,0
581,3.4646308428908363,0
582,6.857725278640449,0
583,-0.4615608319814387,0
584,-1.781517585148637,0
585,1.5317989013643247,0
586,-0.8034190383662069,0
587,0.09875359657847022,0
588,0.03619418310734791,0
589,-0.006192544025704946,0
590,-0.008829759419915761,0
591,-0.01902266101252572,0
592,-0.020735995810952892,0
593,-0.00027089427387471526,0
594,0.0018484315904918787,0
595,-0.051070947437546595,0
596,-0.05138285749640974,0
597,-0.08462242022913898,0
598,-0.04802993983635163,0
599,-0.03311894866264617,0
600,0.30333238856608136,0
601,3.394268571910137,0
602,6.763888378680815,0
603,-0.5519991589499507,0
604,-1.915436533234803,0
605,1.5241598402854366,0
606,-0.7791688262248239,0
607,0.022509594912848027,0
608,-0.022535956594837113,0
609,-0.10365416172668543,0
610,-0.019769882774531886,0
611,-0.10007534707606909,0
612,-0.002967294397697197,0
613,-0.061797007143979794,0
614,-0.053162074785357435,0
615,-0.051657955069478706,0
616,-0.05489412928501388,0
617,-0.06391500996866747,0
618,-0.057994924686229105,0
619,-0.05436999138069449,0
620,0.26818994550812447,0
621,3.533649906007548,0
622,6.753855823624254,0
623,-0.5075232178922569,0
624,-1.9292165435849735,0
625,1.405894521403602,0
626,-0.8047097183539362,0
627,0.06626424907893315,0
628,-0.08992085772590602,0
629,-0.2246213973509661,0
630,0.048707122079594586,0
631,-0.043014777911154704,0
632,0.04286671066933552,0
633,-0.08111628672727014,0
634,-0.10694642183669635,0
635,-0.1418505367641445,0
636,-0.05833877265065534,0
637,0.006605724873352592,0
638,-0.14446287478827657,0
639,-0.10126696216128953,0
640,0.2858664929769817,0
641,3.4966809928399263,0
642,6.729589168072617,0
643,-0.5407522478430542,0
644,-1.9493945920853606,0
645,1.492358589796143,0
646,-0.7198219680667662,0
647,0.17357653832123873,0
648,-0.005786906307083145,0
649,-0.15666913029892351,0
650,-0.07805708759465699,0
651,-0.14216513012482557,0
652,-0.08897155442438885,0
653,-0.02656494019383484,0
654,-0.09330259626758998,0
655,-0.0206285745179191,0
656,-0.14499553332079146,0
657,-0.08647423418730972,0
658,0.028579097831378825,0
659,0.02087425711585339,0
660,0.31152529963806985,0
661,3.4968119589329216,0
662,6.6992456624480115,0
663,-0.5438734633883906,0
664,-1.8696993051931414,0
665,1.422258784038447,0
666,-0.7699689495438112,0
667,0.14949484529827198,0
668,-0.0328254789584781,0
669,-0.056994776487745404,0
670,-0.0343337970628614,0
671,-0.06778376363666282,0
672,-0.1549545982275986,0
673,0.0387456311192943,0
674,-0.04717669555600698,0
675,-0.1287220722996218,0
676,-0.046866905350600355,0
677,-0.04155412904124153,0
678,-0.12077150959936381,0
679,-0.032500460672279394,0
680,0.23826641103504362,0
681,3.5647309423044358,0
682,6.802686706114114,0
683,-0.481368485767055,0
684,-1.9170468316133908,0
685,1.5703605869553428,0
686,-0.8980868758355944,0
687,0.11788464388353682,0
688,-0.06481291820972968,0
689,-0.13456923812098326,0
690,-0.0431216442521388,0
691,-0.055857116920424374,0
692,-0.03302730102273052,0
693,-0.07304883981656148,0
694,-0.05696482480992007,0
695,-0.07486103456644702,0
696,-0.0733624351566853,0
697,-0.07302992194382374,0
698,0.00040083964042063325,0
699,-0.021804625228201924,0
700,0.2362581054000917,0
701,3.5166251384112672,0
702,6.702306857668529,0
703,-0.4817709076040867,0
704,-1.9297914270709444,0
705,1.4855655187248378,0
706,-0.751047820764009,0
707,0.07713664908076637,0
708,-0.020560888888307975,0
709,-0.1303988069192361,0
710,0.07824866387889497,0
711,-0.04832583573913283,0
712,-0.12869189144923637,0
713,-0.054256517891495895,0
714,0.0197961974640584,0
715,-0.024283074609260102,0
716,-0.042067542904582284,0
717,0.09093549171428414,0
718,-0.013449239931201786,0
719,0.11911315899776229,0
720,0.35877406713307247,0
721,3.5792932187708812,0
722,6.889867063453045,0
723,-0.4127493324621981,0
724,-1.800333137229413,0
725,1.5740539173977486,0
726,-0.7801871946810919,0
727,0.1091687428862694,0
728,0.04698024337269423,0
729,0.03264638728944499,0
730,0.06580715950194278,0
731,-0.06573169872623634,0
732,0.04289087208805692,0
733,-0.03841533731490608,0
734,-0.0021058742112346623,0
735,-0.07033519305322639,0
736,-0.10830166904816685,0
737,-0.048030982889901805,0
738,-0.05170883197900741,0
739,-0.046199162096520856,0
740,0.2947675971084998,0
741,3.534437701924225,0
742,6.8320808204979455,0
743,-0.44606381341856005,0
744,-1.7942039876269626,0
745,1.4939245472177463,0
746,-0.8426313211265991,0
747,0.09611075630575484,0
748,0.012589333187330905,0
749,-0.13721544192992755,0
750,-0.06934757286649293,0
751,-0.09757949943685129,0
752,-0.06050199811639399,0
753,-0.0033550085941243916,0
754,-0.021306171362890716,0
755,-0.11423054842616454,0
756,-0.020914173462442256,0
757,-0.01958002180427172,0
758,-0.12035789236598263,0
759,-0.045943945806187096,0
760,0.19828131498265894,0
761,3.5091191424084562,0
762,6.757721013230659,0
763,-0.4297647687462167,0
764,-1.8944283286415702,0
765,1.5136162781052278,0
766,-0.8348004039571894,0
767,0.10181895323767792,0
768,-0.0896882582437631,0
769,-0.0686996221804698,0
770,-0.037902400068415394,0
771,-0.09809312588922649,0
772,-0.1017841892721123,0
773,-0.1424591886054232,0
774,-0.028272674778431664,0
775,0.006060620941591828,0
776,-0.03500839875748239,0
777,-0.07596573384887338,0
778,-0.13982508280340566,0
779,-0.07193396793439827,0
780,0.09228269353470334,0
781,3.520643985718359,0
782,6.801783311806511,0
783,-0.5723070018701102,0
784,-1.8596751746224833,0
785,1.4095664819015188,0
786,-0.8323555261817337,0
787,0.09514762937020928,0
788,-0.030223702083685695,0
789,-0.09741180314106461,0
790,-0.11475310560416534,0
791,-0.09795758952866888,0
792,-0.10422271255639275,0
793,0.03666247918121664,0
794,-0.1173108143275649,0
795,-0.07456149055308997,0
796,-0.08950152909318307,0
797,-0.004133873960922199,0
798,-0.05964593383592152,0
799,-0.07445732808975568,0
800,0.23056445378701496,0
801,3.5181193965434447,0
802,6.7086426703886515,0
803,-0.4121806599180477,0
804,-1.895153262205248,0
805,1.5333735037777334,0
806,-0.8762443737232016,0
807,0.11776109869407325,0
808,0.04134939963535411,0
809,-0.07243739149469913,0
810,-0.04663634328521016,0
811,0.006619011732311858,0
812,-0.002495045565817172,0
813,-0.06550142551620622,0
814,-0.05738947859544696,0
815,0.007022348280411768,0
816,-0.11326356640163421,0
817,-0.02896835343694758,0
818,0.012530747737879343,0
819,0.02152327569257714,0
820,0.3319414133282079,0
821,3.6093058152517403,0
822,6.8860615959277895,0
823,-0.47069861514733197,0
824,-1.8124974061620882,0
825,1.4943710375892476,0
826,-0.8177065075472978,0
827,0.13282756727715977,0
828,-0.019514597574118768,0
829,-0.020947194395432744,0
830,-0.07451246515374124,0
831,-0.050892619433922495,0
832,-0.06455961330214402,0
833,-0.0859174943111564,0
834,0.00585788322641153,0
835,0.010315866791533228,0
836,-0.13320672477363504,0
837,-0.06423647428250011,0
838,0.027906902810259412,0
839,-0.03837906922945074,0
840,0.22343490438625926,1
841,2.0635015643451884,1
842,3.810016400844649,1
843,5.409978090351078,1
844,5.970717240394403,1
845,2.271622655021309,1
846,-0.712595941512603,1
847,-1.4958426572185801,1
848,-1.096012137293672,1
849,0.6486440562831614,1
850,0.7509826587829358,1
851,-0.2610954756997953,1
852,-0.5097423804323206,1
853,-0.027902267295932887,1
854,-0.056185576239887416,1
855,-0.019371300082624332,1
856,-0.08847242431933414,1
857,-0.11000196930675718,1
858,-0.013047585767350336,1
859,-0.03760529306758248,1
860,-0.08528197194803681,1
861,-0.14811478877227832,1
862,-0.09698912701384316,1
863,-0.07493741185610692,1
864,-0.1417835121887033,1
865,-0.11764999726416636,1
866,-0.11874196445983326,1
867,-0.2437551689410794,1
868,-0.18258282685530847,1
869,-0.19024063234221145,1
870,0.09829181440507093,1
871,3.542785912844985,1
872,6.821307950518782,1
873,-0.5887791517806027,1
874,-1.8891107210888805,1
875,1.529748128048572,1
876,-0.8283751077569796,1
877,0.1423883253893587,1
878,0.03692608440934245,1
879,-0.013021181640471533,1
880,0.057057160789592234,1
881,-0.038971689768286986,1
882,0.0037058044927931813,1
883,-0.018476905668137852,1
884,0.001026577950290865,1
885,0.06759860200002582,1
886,-0.059414281859765605,1
887,-0.06976901886210643,1
888,-0.12071568686826842,1
889,-0.04068873910763149,1
890,0.2944900319328246,1
891,3.514577717731949,1
892,6.791344687706689,1
893,-0.5565764688637843,1
894,-1.8845662804273122,1
895,1.477414045739061,1
896,-0.7807585557591378,1
897,0.17099801611523252,1
898,-0.007065749263149963,1
899,-0.11511251878015157,1
900,0.0005182953244656646,1
901,-0.08921263229822218,1
902,0.04851061735536535,1
903,0.02870634973011859,1
904,-0.03948350929784947,1
905,-0.0889361876310577,1
906,-0.05537030389633252,1
907,0.01876670711769067,1
908,-0.11124990298483706,1
909,-0.17781946447122732,1
910,0.28553173214738126,1
911,3.524954380930849,1
912,6.774819805639787,1
913,-0.6069561793581648,1
914,-1.9026045539053384,1
915,1.4924334595276594,1
916,-0.74988177990298,1
917,0.11182065762649658,1
918,-0.03776708777832809,1
919,-0.08777575807978519,1
920,-0.000287096981326191,1
921,-0.000983951369250273,1
922,-0.07912089971331414,1
923,-0.05352675642539562,1
924,0.024303458162475776,1
925,-0.0860321540901737,1
926,-0.0516006470692106,1
927,-0.1239039936650387,1
928,-0.05104866414618915,1
929,-0.10116935978821462,1
930,0.20947627768567015,1
931,3.6405532280353166,1
932,6.715056413787193,1
933,-0.6594713814176705,1
934,-1.8356633153131408,1
935,1.496741363923278,1
936,-0.816106014649324,1
937,0.0263286100834354,1
938,0.016855201029501894,1
939,-0.11540333923792984,1
940,0.09790880543813889,0
941,3.5655019562626746,0
942,6.67892732110281,0
943,-0.5517877996281154,0
944,-1.8278834659741456,0
945,1.5284415076424716,0
946,-0.793618490846499,0
947,0.1827571118439558,0
948,-0.07799528488720711,0
949,0.02242050070829489,0
950,0.06732873463297206,0
951,0.06277872379735538,0
952,-0.026018917312503206,0
953,-0.048593489579651164,0
954,-0.0006994217657383204,0
955,-0.047834834951739194,0
956,-0.050356141099411264,0
957,-0.11558667068916295,0
958,-0.031962366132222815,0
959,-0.0996000425934434,0
960,0.29675788147397986,0
961,3.685834636495235,0
962,6.81650024565922,0
963,-0.6425842255859497,0
964,-1.795353353026122,0
965,1.4812985419751166,0
966,-0.7314106217834555,0
967,0.21461097383130995,0
968,0.0057992922439231535,0
969,-0.06543474116012069,0
970,0.10851378059901107,0
971,0.010690503438315943,0
972,-0.10634067854251555,0
973,-0.05423047124025465,0
974,-0.024155454750183256,0
975,-0.0351472935526885,0
976,-0.07544590054150796,0
977,-0.007642880423563252,0
978,-0.07757106162028744,0
979,-0.06291875176536194,0
980,0.28788407318263315,0
981,3.8181102267633413,0
982,6.774919188331733,0
983,-0.5155441499782689,0
984,-1.8443868970123052,0
985,1.5106756005639994,0
986,-0.8562799467274578,0
987,0.1438749860303424,0
988,-0.05463449139473417,0
989,-0.05730083139900297,0
990,0.05663809637745867,0
991,-0.039960408173699176,0
992,-0.010233919618787625,0
993,-0.052302407364260714,0
994,-0.02622517567587092,0
995,-0.0622444343639353,0
996,-0.06228938894979963,0
997,0.015688629777864352,0
998,-0.08059420465902717,0
999,-0.031466660111741825,0
1000,0.30460696432257717,0
1001,3.719913935604487,0
1002,6.792866342377783,0
1003,-0.5531969522531366,0
1004,-1.7882057546741565,0
1005,1.464837528061848,0
1006,-0.743089236980694,0
1007,0.149582733965509,0
1008,0.02202934835915627,0
1009,-0.024859504267894975,0
1010,-0.016734577983045368,0
1011,-0.0014016109697758232,0
1012,-0.009934028127762824,0
1013,0.007270621694795214,0
1014,0.0027383328261094617,0
1015,-0.035098016625631695,0
1016,-0.015315779851400785,0
1017,-0.04075556942396112,0
1018,-0.05818652671065622,0
1019,0.04743996499061902,0
1020,0.26076022226002105,0
1021,3.6768687319581494,0
1022,6.857554129898644,0
1023,-0.5556214494053967,0
1024,-1.8143125811673717,0
1025,1.5300286929869074,0
1026,-0.7723322409300811,0
1027,0.0925420983136343,0
1028,0.007570448072988973,0
1029,-0.05593719703048614,0
1030,0.021031222937688495,0
1031,-0.05069269391913897,0
1032,-0.04699646557674128,0
1033,-0.08480733903051024,0
1034,-0.031347159531452,0
1035,-0.06692640135551813,0
1036,-0.053954792171025834,0
1037,-0.013677485525335428,0
1038,-0.04891707713815778,0
1039,-0.1431951902018518,0
1040,0.31828134467277885,0
1041,3.662998665725531,0
1042,6.792704413600352,0
1043,-0.5510004715385174,0
1044,-1.8029838160803655,0
1045,1.473373417452782,0
1046,-0.6815221855176339,0
1047,0.15404083048225503,0
1048,0.040722816794503264,0
1049,-0.01305393221259002,0
1050,0.03951376320485249,0
1051,-0.009217755088443622,0
1052,-0.0877728683716974,0
1053,-0.00027111065603347036,0
1054,0.07143937407803554,0
1055,0.05365861734978872,0
1056,0.025365401996943107,0
1057,-0.05141347855724232,0
1058,-0.06120636522363279,0
1059,-0.06635123659815054,0
1060,0.2728749108615223,0
1061,3.5634242491426784,0
1062,6.759186548756199,0
1063,-0.6130977484069725,0
1064,-1.864761238368874,0
1065,1.5530347982384114,0
1066,-0.7906933296087061,0
1067,0.0994128954573095,0
1068,-0.14137984950579519,0
1069,-0.09183433555923967,0
1070,0.0010051852829026792,0
1071,-0.03220073371030574,0
1072,0.026916078112538953,0
1073,-0.043848725384952006,0
1074,-0.078776878321179,0
1075,-0.037852748337328934,0
1076,0.08893710376937966,0
1077,0.009520750556077116,0
1078,0.04639967831702117,0
1079,-0.06540985730464008,0
1080,0.3619735947243984,0
1081,3.7562167901008015,0
1082,6.806729665448204,0
1083,-0.5571780545004205,0
1084,-1.8070453497431445,0
1085,1.5851482474589722,0
1086,-0.7436360264735626,0
1087,0.21009741284205843,0
1088,0.015533378528940106,0
1089,0.03454831540566386,0
1090,0.072742357210566,0
1091,-0.001709216968446916,0
1092,0.035612734730294075,0
1093,0.07093275564273119,0
1094,0.029810835912274743,0
1095,-0.012417950251493911,0
1096,0.034016190285349274,0
1097,0.003422504129324031,0
1098,0.0923886450180024,0
1099,-0.048694344506632764,0
1100,0.3811633993697805,0
1101,3.7266392006772286,0
1102,6.944509736360424,0
1103,-0.5771896714093401,0
1104,-1.7928175360887466,0
1105,1.5505204825595291,0
1106,-0.8213202934596748,0
1107,0.12384046756647339,0
1108,-0.002897908169854274,0
1109,0.007512812988035782,0
1110,0.04984605625174154,0
1111,0.08131968163168411,0
1112,-0.008217931644943707,0
1113,0.018912129881765594,0
1114,0.0675429073995586,0
1115,0.08673259602927652,0
1116,-0.01108582157960114,0
1117,0.03208030209537611,0
1118,0.04430106961209877,0
1119,-0.017165434470689578,0
1120,0.31289364126760727,0
1121,3.7365356492191677,0
1122,6.812988191480914,0
1123,-0.552276228057487,0
1124,-1.7630273308041726,0
1125,1.5061011643796773,0
1126,-0.661101966563171,0
1127,0.24082041302392568,0
1128,0.04461088334856901,0
1129,-0.058891898973144875,0
1130,0.05527995075257501,0
1131,0.0601607303477852,0
1132,-0.011439067000480863,0
1133,0.022566287164992843,0
1134,0.06980478767323471,0
1135,-0.06411726808354164,0
1136,0.04730344760056116,0
1137,0.06179801762368606,0
1138,0.003048015482972996,0
1139,0.08175154395972896,0
1140,0.3441242531703927,0
1141,3.6913291398756454,0
1142,6.859299731000671,0
1143,-0.5259178618186828,0
1144,-1.7513334670902156,0
1145,1.5496631633639515,0
1146,-0.6400654945935819,0
1147,0.28173809827082086,0
1148,0.0817353184126679,0
1149,0.039872370068734925,0
1150,0.15675115677067955,0
1151,0.09019678101321657,0
1152,0.13981247238915437,0
1153,0.13717788483255144,0
1154,0.12235196328736342,0
1155,0.013403863738369798,0
1156,0.05392185420203853,0
1157,0.12064270530928548,0
1158,0.14463244615632476,0
1159,0.06259325945574222,0
1160,0.30112859898604627,0
1161,3.794499710903271,0
1162,6.940612758311766,0
1163,-0.47009738009855306,0
1164,-1.676397425267507,0
1165,1.608414563059655,0
1166,-0.565647559200552,0
1167,0.31878966099523737,0
1168,0.13327632304865356,0
1169,0.05976288070646827,0
1170,0.14034465460527953,0
1171,0.09500695106904071,0
1172,0.13754971669099023,0
1173,0.09991617136085831,0
1174,0.029083031600863785,0
1175,0.10004842808826746,0
1176,0.20864404253483232,0
1177,0.20019614381050085,0
1178,0.08669106517490717,0
1179,0.2275242775330889,0
1180,0.5076163486733082,0
1181,3.9124485034671546,0
1182,6.908293484521898,0
1183,-0.3323027551539734,0
1184,-1.644959145783105,0
1185,1.7459419933975155,0
1186,-0.5765510661492481,0
1187,0.42985735273972164,0
1188,0.1742121743380949,0
1189,0.18730207442560756,0
1190,0.21789022453905196,0
1191,0.19625846244690925,0
1192,0.33719179707488345,0
1193,0.10689025608004732,0
1194,0.15162890806759904,0
1195,0.17855785125913962,0
1196,0.1936950358406691,0
1197,0.10379527962586084,0
1198,0.14531993336295948,0
1199,0.23256362889396115,0
1200,0.45466338425742214,0
1201,3.91012957797381,0
1202,6.896819666518888,0
1203,-0.3563122377893193,0
1204,-1.5973194587511277,0
1205,1.7571146949705938,0
1206,-0.5951106341170582,0
1207,0.3059246069960259,0
1208,0.25985276795408446,0
1209,0.18104323583648158,0
1210,0.22909035596562646,0
1211,0.11707531955668159,0
1212,0.18033434536721787,0
1213,0.22472620952180952,0
1214,0.2806271707750648,0
1215,0.09868574663522948,0
1216,0.14961889003520223,0
1217,0.1183956922165376,0
1218,0.15104567369036337,0
1219,0.22343593220045813,0
1220,0.37702072628801453,0
1221,3.8895917700538165,0
1222,6.996100067588228,0
1223,-0.40871084818985964,0
1224,-1.5190035425419584,0
1225,1.7007803422034733,0
1226,-0.5061984032060451,0
1227,0.3261539604008364,0
1228,0.08255964285921652,0
1229,0.09737763315120035,0
1230,0.1530963059750448,0
1231,0.2066365880464869,0
1232,0.2259822736032236,0
1233,0.17908433372422217,0
1234,0.21203685092756575,0
1235,0.11489337935569804,0
1236,0.1621852898792773,0
1237,0.1648953723400464,0
1238,0.17356331352667725,0
1239,0.19468939627372928,0
1240,0.5375167526711578,0
1241,3.956799498126693,0
1242,6.966454967200107,0
1243,-0.4602904940866933,0
1244,-1.5566323575498242,0
1245,1.6655783141555862,0
1246,-0.5539736536043322,0
1247,0.25661924898705757,0
1248,0.20544299973153737,0
1249,0.12487966996047632,0
1250,0.24959077715607697,0
1251,0.16468953251103619,0
1252,0.15760986731429888,0
1253,0.3011245153448918,0
1254,0.09532913171437266,0
1255,0.12092441814454973,0
1256,0.22481191489888916,0
1257,0.2186516517988583,0
1258,0.23612995390436853,0
1259,0.20451485006898876,0
1260,0.6090384660690173,0
1261,3.951945934745168,0
1262,6.983618759353913,0
1263,-0.3598030497472864,0
1264,-1.5468252710301547,0
1265,1.6409512742738674,0
1266,-0.669496762548599,0
1267,0.335311883854939,0
1268,0.19972459559919625,0
1269,0.11629363404020024,0
1270,0.1732743853737863,0
1271,0.14014487865794942,0
1272,0.25008611497956335,0
1273,0.1621288746644541,0
1274,0.02914567930877518,0
1275,0.10587131440127118,0
1276,0.16105381386946127,0
1277,0.14378334517503033,0
1278,0.05516682938179951,0
1279,0.15972590528854103,0
1280,0.40317992917679546,0
1281,3.7642733381683278,0
1282,6.904084637220707,0
1283,-0.5690663500832949,0
1284,-1.6578262741958554,0
1285,1.5150962448149805,0
1286,-0.641821214627813,0
1287,0.265320960695211,0
1288,0.12309574354843794,0
1289,-0.004752543534186832,0
1290,0.048332284086714125,0
1291,0.04155753947718002,0
1292,0.020992266390200964,0
1293,0.1018942465683414,0
1294,0.122993953207642,0
1295,0.016628076571815795,0
1296,0.016367725103062024,0
1297,0.03048309918285326,0
1298,-0.02457956026412665,0
1299,0.1686426802580229,0
1300,0.33483931094196917,0
1301,3.7664733997353577,0
1302,6.796845038546412,0
1303,-0.5767297781149058,0
1304,-1.759541272982128,0
1305,1.5953260719296172,0
1306,-0.7249599321354836,0
1307,0.14128810322927787,0
1308,0.12695176696278845,0
1309,-0.08192992942873972,0
1310,0.1007478808155052,0
1311,0.004307548006284006,0
1312,0.05307796119072347,0
1313,0.08689638169954705,0
1314,0.058693510058256196,0
1315,-0.056935842949050755,0
1316,-0.06627322274725968,0
1317,0.03580880250068187,0
1318,0.022398295913160865,0
1319,0.09833179707787834,0
1320,0.45645372087042513,0
1321,3.8230087083213506,0
1322,6.858806960259602,0
1323,-0.5747087676909772,0
1324,-1.705201068832131,0
1325,1.4688949177051613,0
1326,-0.79088587491316,0
1327,0.1470035677426384,0
1328,0.10588047562782651,0
1329,-0.07473035716615428,0
1330,0.00643749986879695,0
1331,0.05708625607972863,0
1332,0.07996647490501546,0
1333,0.06021749145998943,0
1334,-0.055903498049858384,0
1335,0.009789446303526907,0
1336,-0.012630343378393936,0
1337,0.0010301981144647272,0
1338,0.011847916644643297,0
1339,0.06834517818891689,0
1340,0.3183573790280917,0
1341,3.7428686641744227,0
1342,6.738844683891812,0
1343,-0.6131863032074596,0
1344,-1.7970360483739924,0
1345,1.4625356784767005,0
1346,-0.7787756441550192,0
1347,0.11320458062146926,0
1348,0.0648925346074103,0
1349,-0.03144294087231682,0
1350,0.023371971712704324,0
1351,-0.036920047319078636,0
1352,-0.07109376384943733,0
1353,0.007640356316612664,0
1354,0.009352346376419515,0
1355,-0.01244568610503373,0
1356,-0.05344078970219311,0
1357,-0.07121908591743142,0
1358,-0.07773736796559946,0
1359,-0.041080498717113584,0
1360,0.2906838531837746,0
1361,3.613287765004016,0
1362,6.711707530406124,0
1363,-0.7659317261608446,0
1364,-1.795869745994832,0
1365,1.4611660785667802,0
1366,-0.8056006354562233,0
1367,0.09650444834528729,0
1368,0.03782408041996933,0
1369,-0.11847606622187008,0
1370,-0.04521105943123594,0
1371,-0.15362955789135493,0
1372,-0.03587806327057417,0
1373,-0.020283139760263264,0
1374,0.007972409429312013,0
1375,-0.025831752358944922,0
1376,-0.02216158182454956,0
1377,-0.06287657769101146,0
1378,0.016752198920488112,0
1379,-0.011530635783978397,0
1380,0.3384643385014845,0
1381,3.694930883234374,0
1382,6.79568435856012,0
1383,-0.6568205725802965,0
1384,-1.8485339388304582,0
1385,1.4174628606416846,0
1386,-0.8054572160962482,0
1387,0.119325112018764,0
1388,0.019861003166269472,0
1389,-0.02699277983671077,0
1390,0.00013080839600858318,0
1391,-0.04513358060867461,0
1392,-0.004265704777315738,0
1393,-0.035471431515854024,0
1394,-0.019695019833117,0
1395,-0.09972171714747823,0
1396,-0.0708286961639432,0
1397,0.048541953398075856,0
1398,-0.12173706300234484,0
1399,-0.14925957986949814,0
1400,0.29284760726274267,0
1401,3.6743903944157967,0
1402,6.783041089736179,0
1403,-0.6131493992568827,0
1404,-1.7404334265130323,0
1405,1.5025672678046489,0
1406,-0.791420397158644,0
1407,0.10638079408740012,0
1408,-0.036320574306016304,0
1409,-0.06854466802871766,0
1410,-0.1271837204028623,0
1411,-0.11955799408268564,0
1412,-0.07251289170058928,0
1413,-0.048088525975795646,0
1414,0.015456099002191512,0
1415,0.0084728159036635,0
1416,0.0129580637926145,0
1417,-0.07153315077549097,0
1418,-0.018709567877164917,0
1419,0.033596266574581035,0
1420,0.3232937410897982,0
1421,3.79171743776988,0
1422,6.75526061424241,0
1423,-0.6350836331978322,0
1424,-1.8539144399077698,0
1425,1.5980711682897353,0
1426,-0.8152422257979971,0
1427,0.12004819401584887,0
1428,-0.1520716140860167,0
1429,-0.027343233175118165,0
1430,-0.1323690107960717,0
1431,-0.040058933202335695,0
1432,-0.15770736874124808,0
1433,-0.06887865480098482,0
1434,0.004499918853265453,0
1435,0.05008029784448573,0
1436,0.07160241645547752,0
1437,0.0202168448318059,0
1438,0.1730511241478577,0
1439,0.032761356586790844,0
1440,0.34853625783656117,0
1441,3.834472023631096,0
1442,6.882739105969723,0
1443,-0.5283197960268742,0
1444,-1.6595584080189207,0
1445,1.5539720832377721,0
1446,-0.7912089395082761,0
1447,0.1665448784065909,0
1448,0.01615854100767448,0
1449,-0.1026262448848153,0
1450,-0.023312215673091625,0
1451,-0.04525890676603679,0
1452,0.0028011553113702764,0
1453,-0.14350167969496364,0
1454,0.021328980726499053,0
1455,-0.03020371063816616,0
1456,-0.020398825550910715,0
1457,-0.08807893697215605,0
1458,-0.04038769325762803,0
1459,0.02098332783953582,0
1460,0.275586926773577,0
1461,3.720948688495676,0
1462,6.774529940755288,0
1463,-0.6922066056945883,0
1464,-1.627227739460988,0
1465,1.5436896907736215,0
1466,-0.7848446488615525,0
1467,0.1351272882687325,0
1468,-0.09190793919165727,0
1469,-0.0031475151267975343,0
1470,0.08278445154003078,0
1471,-0.03433729261652634,0
1472,-0.07238695903591222,0
1473,-0.06324646298977117,0
1474,0.10006152426491578,0
1475,0.04721227387049039,0
1476,-0.00218184557027138,0
1477,0.043539853006160145,0
1478,-0.03939474972102827,0
1479,-0.0001672793127816079,0
1480,0.3574688377261055,0
1481,3.8605350215166463,0
1482,6.841817534878407,0
1483,-0.5829081938639604,0
1484,-1.7458861616937655,0
1485,1.446411545589539,0
1486,-0.7013022157717052,0
1487,0.13613509069651122,0
1488,0.05558875138543051,0
1489,-0.02977754306583795,0
1490,0.039475214585680804,0
1491,-0.10051456135941775,0
1492,0.0012068384272226028,0
1493,-0.02344950761768362,0
1494,0.022788221818876644,0
1495,-0.005234456473776603,0
1496,-0.09375026982701376,0
1497,-0.05952518437232199,0
1498,-0.033022021225243586,0
1499,-0.0968870226698125,0
1500,0.2974784606477418,0
1501,3.753160061719697,0
1502,6.761844317995554,0
1503,-0.7067944496820672,0
1504,-1.7128563632574192,0
1505,1.402629277071773,0
1506,-0.8211991676479138,0
1507,0.14292410254399376,0
1508,0.0446888698258884,0
1509,-0.023287375990992995,0
1510,0.05405591492085686,0
1511,0.04771604084446935,0
1512,0.055344765589694145,0
1513,0.028178084318620122,0
1514,0.05009622169190317,0
1515,0.06613468525730412,0
1516,-0.008974152183998656,0
1517,-0.023644985605153924,0
1518,0.09305941324943169,0
1519,-0.042096131587604835,0
1520,0.3546336083402249,0
1521,3.740242247232592,0
1522,6.749235233446408,0
1523,-0.7008302736387738,0
1524,-1.7645312476458352,0
1525,1.5646129232725219,0
1526,-0.7105324461324676,0
1527,0.27624745526310995,0
1528,0.030880725754811055,0
1529,0.006734250337662714,0
1530,-0.012409743962455089,0
1531,-0.04649272580296658,0
1532,0.037591445296427314,0
1533,-0.05784169732584455,0
1534,-0.013172273132290212,0
1535,0.09739815709868271,0
1536,0.04422359283048459,0
1537,-0.026304269281262605,0
1538,-5.4211258854523076e-05,0
1539,-0.12151842154533252,0
1540,0.2925428072633517,0
1541,3.7234782698684628,0
1542,6.802821801126898,0
1543,-0.6373009586991356,0
1544,-1.6891604041715576,0
1545,1.507315370611199,0
1546,-0.7386884330120477,0
1547,0.1892540107475938,0
1548,0.008776460841548497,0
1549,0.020678607507078426,0
1550,0.13046928050855622,0
1551,0.0929279273087836,0
1552,-0.023927928009112427,0
1553,-0.029563101722187894,0
1554,0.04344413131237006,0
1555,0.05863411983182407,0
1556,-0.009779666776762112,0
1557,0.05195496334278023,0
1558,-0.006722851852956256,0
1559,0.05505314082892847,0
1560,0.38270123452648025,0
1561,3.8301853048090138,0
1562,6.878339532011313,0
1563,-0.6657440669711485,0
1564,-1.6717523145045332,0
1565,1.5552611460354808,0
1566,-0.7662325726518511,0
1567,0.28881967571266054,0
1568,0.029075164482118294,0
1569,-0.025383565637057924,0
1570,0.09006958899473871,0
1571,-0.04935117154458617,0
1572,0.045747437132479925,0
1573,0.029862263122388173,0
1574,0.03482423220424048,0
1575,0.03694470303824232,0
1576,-0.029740421918249174,0
1577,0.08120925955722502,0
1578,-0.020714493165445685,0
1579,0.015683443715584132,0
1580,0.35205895475586735,0
1581,3.763117303696236,0
1582,6.841826460528264,0
1583,-0.6556445371058749,0
1584,-1.5476716630580993,0
1585,1.6376313396191458,0
1586,-0.6287127313805772,0
1587,0.3631727709273064,0
1588,0.2222987344163258,0
1589,0.14952949004401123,0
1590,0.08934379327757297,0
1591,0.2400778896512444,0
1592,0.21079450694963497,0
1593,0.1011704594334217,0
1594,0.10566657187040378,0
1595,0.11272194859248066,0
1596,0.04892588596684712,0
1597,0.04135667104328458,0
1598,0.15046689261490112,0
1599,-0.007191334555624585,0
1600,0.2398021363558841,0
1601,3.6886322832123684,0
1602,6.798775560904269,0
1603,-0.7730428116843544,0
1604,-1.6661973115266147,0
1605,1.4571587580197798,0
1606,-0.82354524562933,0
1607,0.1482454063009288,0
1608,0.04150749829843288,0
1609,-0.04162913456374569,0
1610,0.03989426809351882,0
1611,0.018054704013042128,0
1612,0.08176133018349573,0
1613,-0.019061340766578956,0
1614,0.08014716517715123,0
1615,0.030380303365675692,0
1616,0.06278636539924125,0
1617,0.05501568708066734,0
1618,-0.03227774398811941,0
1619,-0.06875497653081478,0
1620,0.33967395076797624,0
1621,3.7839945663037526,0
1622,6.6664018030558685,0
1623,-0.6931656705507846,0
1624,-1.6732400419756979,0
1625,1.498049460996848,0
1626,-0.7317140850760258,0
1627,0.1827135105704384,0
1628,0.11496670969199879,0
1629,-0.030172379723704207,0
1630,0.03192799454896263,0
1631,0.08019279176024717,0
1632,0.04471415156626149,0
1633,0.04793349550120906,0
1634,0.07810345506950367,0
1635,0.06293023122815115,0
1636,0.0639863771020536,0
1637,0.12823283620831907,0
1638,0.10400542538413884,0
1639,0.05800894967110047,0
1640,0.3400188120604701,0
1641,3.9013133030265066,0
1642,6.720053328641761,0
1643,-0.709319760923409,0
1644,-1.6107792843663753,0
1645,1.5655136030875205,0
1646,-0.7224977192033518,0
1647,0.19158317235050468,0
1648,0.024904042928082966,0
1649,-0.02580015233204042,0
1650,0.07113551026428411,0
1651,0.057946808240425585,0
1652,0.014641416714254495,0
1653,0.09463710094300438,0
1654,0.10172644523735185,0
1655,0.08142703596174324,0
1656,-0.045124471997058414,0
1657,0.035575160669910455,0
1658,0.03471688602155245,0
1659,0.023791890941268778,0
1660,0.3420106331692048,0
1661,3.835062607190035,0
1662,6.783624253399096,0
1663,-0.7358561798634016,0
1664,-1.7660246112705038,0
1665,1.447691963824245,0
1666,-0.7589722889237493,0
1667,0.20751620764492135,0
1668,0.07574641324978978,0
1669,-0.011350150686170693,0
1670,0.07500599944505654,0
1671,-0.033071314739018,0
1672,0.045042179331213086,0
1673,0.013266360613093407,0
1674,0.05513254954885155,0
1675,-0.012499767868698615,0
1676,0.10252206793934954,0
1677,0.07684118536305817,0
1678,0.03796989806714969,0
1679,0.04781483446002398,0
1680,0.4064756385625653,0
1681,3.725162149173653,0
1682,6.809455880035301,0
1683,-0.6703180743402295,0
1684,-1.7069472816371245,0
1685,1.4874629346204968,0
1686,-0.8272533568087456,0
1687,0.20378160128484193,0
1688,0.02984708485203745,0
1689,-0.09726328541805335,0
1690,0.017526702421425254,0
1691,0.015042554579044725,0
1692,-0.04243210463634518,0
1693,0.022943772398934685,0
1694,-0.004959095435056814,0
1695,0.011617512401283139,0
1696,-0.10337594201757776,0
1697,-0.016386386562846245,0
1698,0.03085858462301099,0
1699,0.035744078829374824,0
1700,0.34841763796414416,0
1701,3.774072592245181,0
1702,6.821131025540932,0
1703,-0.780770561580674,0
1704,-1.6286616697329264,0
1705,1.4792430400748853,0
1706,-0.7868303943780175,0
1707,0.12009184218642283,0
1708,0.02382703756650178,0
1709,-0.07154194594794322,0
1710,0.04800801174076297,0
1711,-0.0009859725610739736,0
1712,0.06302253646791992,0
1713,0.017699541226326436,0
1714,-0.09461186820844278,0
1715,-0.002585926284637899,0
1716,-0.0960447243042779,0
1717,0.06769097205383345,0
1718,-0.029409882178033815,0
1719,0.021502653840071953,0
1720,0.278379548262466,0
1721,3.7950659443789134,0
1722,6.742279409946796,0
1723,-0.9147646745935647,0
1724,-1.8694697511436567,0
1725,1.4813614258976806,0
1726,-0.7492228711280935,0
1727,0.22539365615829843,0
1728,0.03720023379648982,0
1729,-0.08096424255988585,0
1730,-0.021787299698860035,0
1731,0.044914467204826,0
1732,0.039572574024439755,0
1733,-0.01556461520020757,0
1734,-0.10249080234391893,0
1735,-0.04818703261118995,0
1736,-0.10559627757432338,0
1737,-0.04169330874962355,0
1738,-0.03261301486314648,0
1739,0.047311130448728936,0
1740,0.2948306216723846,0
1741,3.881501746406178,0
1742,6.694929923742952,0
1743,-0.7067372593509331,0
1744,-1.64245866483408,0
1745,1.5850554536371946,0
1746,-0.7811784031669412,0
1747,0.0878368218893291,0
1748,0.08250782617087235,0
1749,-0.05245619315433982,0
1750,-0.05139308332028138,0
1751,-0.09535803139845546,0
1752,0.00532868875216275,0
1753,0.04136801756277857,0
1754,-0.0926397878042711,0
1755,0.03974087117727271,0
1756,-0.05866868515139749,0
1757,0.08887787836745643,0
1758,-0.03176510562054212,0
1759,0.02904255772528954,0
1760,0.30855698887559074,0
1761,3.8429090983089207,0
1762,6.729113525302435,0
1763,-0.7750413316630208,0
1764,-1.7004741263839789,0
1765,1.4533015125462305,0
1766,-0.8017064371350475,0
1767,0.11426833829962446,0
1768,-0.05242572103043547,0
1769,0.009312001556793237,0
1770,-0.012340575299191768,0
1771,0.004255388791556212,0
1772,-0.018518250697832743,0
1773,-0.0853203288806491,0
1774,-0.04996730149516602,0
1775,0.0690917565564862,0
1776,-0.03790403480989627,0
1777,-0.0726025977391411,0
1778,-0.07155033194106451,0
1779,-0.09151295390127126,0
1780,0.27408028378375815,0
1781,3.7804405438631994,0
1782,6.714954362246485,0
1783,-0.8771121534520259,0
1784,-1.7944386766294302,0
1785,1.4435171402250855,0
1786,-0.7910707377974282,0
1787,0.26371465292543506,0
1788,0.0494361037800974,0
1789,-0.09092660546853693,0
1790,0.10211529006828349,0
1791,-0.043156678074486796,0
1792,-0.03925569860720331,0
1793,0.01919146195315363,0
1794,0.0025792049086973655,0
1795,-0.01598758987590103,0
1796,-0.059959395291480894,0
1797,0.016634892547403954,0
1798,-0.10358119997025506,0
1799,-0.06270076389554712,0
1800,0.28731438169299095,0
1801,3.8500130859147825,0
1802,6.677540073089897,0
1803,-0.7394469571718311,0
1804,-1.6296156385140776,0
1805,1.4296581838753577,0
1806,-0.7832089915612436,0
1807,0.1485917700472373,0
1808,0.026292360486442005,0
1809,0.052849549152045414,0
1810,0.013881850842906714,0
1811,-0.014071099400904709,0
1812,0.0453505861818302,0
1813,0.00024391819134492176,0
1814,-0.13746065164531654,0
1815,-0.052811566643946664,0
1816,0.055148611496010275,0
1817,0.03387225266329892,0
1818,-0.008640210396009805,0
1819,0.1137323238214735,0
1820,0.44876846671208404,0
1821,3.756467281991515,0
1822,6.678218085781292,0
1823,-0.7520007769008037,0
1824,-1.5396617682556166,0
1825,1.5235376544293588,0
1826,-0.7457179650852727,0
1827,0.20875680460551477,0
1828,0.05042430895260212,0
1829,0.01289099715010868,0
1830,-0.029739751179681237,0
1831,0.022098619174162632,0
1832,0.03963100011467952,0
1833,0.08354196857163693,0
1834,0.11566197709683583,0
1835,0.02518187697127934,0
1836,0.1430765558029995,0
1837,0.035040012270749654,0
1838,0.006373088226752928,0
1839,0.018817962720490352,0
1840,0.35133598651231013,0
1841,3.9061155498846363,0
1842,6.7169258964805865,0
1843,-0.7500542379497236,0
1844,-1.6602435825010968,0
1845,1.3490569238476482,0
1846,-0.8292820936154847,0
1847,0.17994064602849763,0
1848,-0.013105964191118966,0
1849,-0.0710381421921018,0
1850,0.0050226894904035965,0
1851,-0.028434545114091186,0
1852,0.03518905672230921,0
1853,-0.09015198770362702,0
1854,-0.029962425580827796,0
1855,0.011671716971330088,0
1856,-0.03809036176313246,0
1857,-0.06854370781251715,0
1858,0.05551502409943691,0
1859,-0.04268153065554603,0
1860,0.36793393039616606,0
1861,3.9054005338104263,0
1862,6.737318831630667,0
1863,-0.8092461350585234,0
1864,-1.5981591867164937,0
1865,1.5209181001106635,0
1866,-0.7967900764090274,0
1867,0.18276841499927587,0
1868,0.0029566977972057488,0
1869,-0.1095352455968133,0
1870,0.0268267488524058,0
1871,0.0028693787963160406,0
1872,0.04084193791148699,0
1873,-0.0685687239502149,0
1874,-0.024511643506416627,0
1875,-0.004756066593281514,0
1876,0.016645811880859902,0
1877,-0.06625979394440827,0
1878,0.06936623293718955,0
1879,-0.055345019165822705,0
1880,0.3247250238347051,0
1881,3.8052844057558226,0
1882,6.723443845782616,0
1883,-0.8015367647319027,0
1884,-1.6329471396055188,0
1885,1.46877451352778,0
1886,-0.745818046092387,0
1887,0.2231257132558892,0
1888,-0.0010249298035688052,0
1889,0.020693021875450537,0
1890,-0.02865962963367401,0
1891,0.03129105129595212,0
1892,-0.03161412169650032,0
1893,0.01564940977892775,0
1894,-0.0606630085613732,0
1895,-0.10529366535623637,0
1896,0.04097910252339198,0
1897,-0.07485536541418969,0
1898,0.07959565247990809,0
1899,-0.1457062078039835,0
1900,0.3616179514668705,0
1901,3.8102706810435416,0
1902,6.660110407220116,0
1903,-0.757250771879886,0
1904,-1.6498250963484389,0
1905,1.332926920332644,0
1906,-0.7626826106884218,0
1907,0.13585722949594878,0
1908,0.032246176507432105,0
1909,-0.028953879358951756,0
1910,-0.04350527760972808,0
1911,0.01656697468126829,0
1912,-0.009468821026208607,0
1913,0.059525976120250554,0
1914,-0.025394692907724968,0
1915,0.11198098643293229,0
1916,-0.028876450725071806,0
1917,-0.11656118135083268,0
1918,-0.08112803079903695,0
1919,-0.03387433331897566,0
1920,0.3760780859805922,0
1921,3.8988752749290074,0
1922,6.726500458314978,0
1923,-0.7202076920843512,0
1924,-1.6087408048420186,0
1925,1.4837677070059159,0
1926,-0.6980931222740014,0
1927,0.24309412099951402,0
1928,-0.025553181518450277,0
1929,-0.06312330275851752,0
1930,-0.013098549452334136,0
1931,0.061597799077057425,0
1932,0.05137490197362808,0
1933,0.09553743727003783,0
1934,0.0385096296787731,0
1935,0.05244049730419247,0
1936,0.15115314782768624,0
1937,0.04096660435768751,0
1938,0.01981313842955405,0
1939,0.046572844246596405,0
1940,0.36060080945848233,0
1941,3.8446911701329802,0
1942,6.672984367967717,0
1943,-0.7646214213572815,0
1944,-1.543854958197933,0
1945,1.5421228498328368,0
1946,-0.8195282113052924,0
1947,0.2331892601695077,0
1948,-0.037107994033936983,0
1949,-0.05377939889656349,0
1950,1.4944954781185779e-05,0
1951,-0.04905787664837531,0
1952,-0.03790932243964714,0
1953,-0.01833266687914395,0
1954,-0.07704249894659883,0
1955,-0.04176005277189539,0
1956,0.017598836835720895,0
1957,0.005818714591465317,0
1958,-0.0993546211324855,0
1959,-0.10086629171649239,0
1960,0.30550328061785864,0
1961,3.8258585991692082,0
1962,6.689714810049303,0
1963,-0.8869868985564826,0
1964,-1.649586955212119,0
1965,1.4213716197928952,0
1966,-0.7162328420307232,0
1967,0.2512922676357883,0
1968,0.021764737490159752,0
1969,0.049155535354033913,0
1970,-0.035749620034932594,0
1971,-0.07118341862762131,0
1972,-0.06161228608020346,0
1973,-0.08295790659647592,0
1974,-0.007146502731088121,0
1975,-0.022687354767993897,0
1976,0.005421893954651218,0
1977,-0.021898778637573293,0
1978,0.05793541731114735,0
1979,-0.0013715289259608157,0
1980,0.3503133479873606,0
1981,3.8637350124802614,0
1982,6.634882391443602,0
1983,-0.8069413780293284,0
1984,-1.6702207097527617,0
1985,1.5141198691870057,0
1986,-0.8176417493018232,0
1987,0.15988530831960535,0
1988,-0.06399807526058579,0
1989,-0.09059596149386417,0
1990,-0.05899038387475417,0
1991,-0.09999891049051905,0
1992,-0.05204284816806843,0
1993,-0.06930869694189487,0
1994,-0.004505816033095099,0
1995,-0.06019253885016272,0
1996,-0.06603375999492823,0
1997,-0.02935025118436195,0
1998,-0.09197777069392452,0
1999,-0.10727543462414973,0
2000,0.3014637247417619,0
2001,3.7181348427571517,0
2002,6.670317704368416,0
2003,-0.8763354155364096,0
2004,-1.643836715340591,0
2005,1.4800192060696369,0
2006,-0.8782343069422092,0
2007,0.10628344993866956,0
2008,-0.0311973463495529,0
2009,-0.1090239138656832,0
2010,-0.04357243463074732,0
2011,-0.007677906407895549,0
2012,-0.0474871790214494,0
2013,0.07995515733714366,0
2014,0.033540074747150164,0
2015,0.05611498748589227,0
2016,-0.04298166566784202,0
2017,-0.025515973498562924,0
2018,-0.07737910701183251,0
2019,0.029104384938514673,0
2020,0.3113212095212102,0
2021,3.8017658741239972,0
2022,6.663463016958717,0
2023,-0.9129501647632944,0
2024,-1.7214018482178748,0
2025,1.5615290031674638,0
2026,-0.8613241452162644,0
2027,0.0794946507145556,0
2028,-0.11490639990441986,0
2029,-0.028358289531030416,0
2030,-0.04193303247524474,0
2031,-0.08207711585676512,0
2032,-0.021130556936753073,0
2033,-0.04961603712468267,0
2034,-0.06834563510076339,0
2035,0.004509704816153676,0
2036,-0.021863703596111537,0
2037,-0.017970076998844696,0
2038,-0.1252026898405366,0
2039,-0.015098576033148684,0
2040,0.3812527971722464,0
2041,3.9523944078694044,0
2042,6.7489089845554,0
2043,-0.7270554109543672,0
2044,-1.6006652375581434,0
2045,1.453458109546197,0
2046,-0.8572082595560062,0
2047,0.12412796795043907,0
2048,-0.020932141024533363,0
2049,-0.057080265576846055,0
2050,-0.07191406796268206,0
2051,0.04928278869402772,0
2052,-0.0948967919085889,0
2053,-0.1048444323677584,0
2054,-0.023954421545971112,0
2055,-0.08800769838313191,0
2056,-0.06518460302118903,0
2057,-0.1478552186263767,0
2058,-0.1474809876255333,0
2059,-0.14502492419269147,0
2060,0.2906516613725106,0
2061,3.8127641615264136,0
2062,6.716781589170754,0
2063,-0.775774210849693,0
2064,-1.6053523477730212,0
2065,1.3941088419818861,0
2066,-0.8114645298635035,0
2067,0.13666652973554377,0
2068,-0.0724351316311714,0
2069,-0.07849743469789057,0
2070,0.005956354474257696,0
2071,-0.03712460644454499,0
2072,-0.053470874713007675,0
2073,-0.04368905611562689,0
2074,0.04019967453777841,0
2075,0.0019350669175347236,0
2076,-0.031343892263191044,0
2077,0.021383661551170077,0
2078,0.03120002587413583,0
2079,-0.07638410237856293,0
2080,0.2950349479416848,0
2081,3.8318031343202605,0
2082,6.741389377962399,0
2083,-0.816299476841505,0
2084,-1.605369765887156,0
2085,1.3901708661022925,0
2086,-0.7758034411279042,0
2087,0.1428644237700777,0
2088,-0.009712346590519689,0
2089,-0.03670787645342085,0
2090,-0.01128433594874527,0
2091,0.008182521915801617,0
2092,-0.07054853743889625,0
2093,-0.019698227735205003,0
2094,0.03633795580761588,0
2095,-0.099164084815091,0
2096,0.024138544427373728,0
2097,-0.011478976754032493,0
2098,0.020446605118860598,0
2099,0.03396564591633841,0
2100,0.3371040343869547,0
2101,3.805384969800432,0
2102,6.731151956017382,0
2103,-0.8037137749784119,0
2104,-1.6090972909125374,0
2105,1.4895575280188826,0
2106,-0.8461726680557498,0
2107,0.27431838531366703,0
2108,0.016768539345685996,0
2109,-0.09132079749932767,0
2110,-0.03502322112222288,0
2111,-0.0512555310312749,0
2112,0.04433497617869414,0
2113,-0.012313747572593318,0
2114,0.051095222154673624,0
2115,-0.0027404848075823877,0
2116,-0.008434314878118493,0
2117,-0.04092255803194991,0
2118,-0.09491242963020692,0
2119,0.014202278068896087,0
2120,0.2956608153747923,0
2121,3.9162795243770336,0
2122,6.804649201634404,0
2123,-0.8645842317252683,0
2124,-1.6950420953471743,0
2125,1.5906442690471974,0
2126,-0.7386372008840265,0
2127,0.20559651046866925,0
2128,0.020649077895942093,0
2129,-0.005441188480164451,0
2130,0.08976211403660359,0
2131,0.051258828744354765,0
2132,0.05568409537559256,0
2133,0.01401044563199734,0
2134,0.08663931870220884,0
2135,0.07095565857970748,0
2136,0.03423604579758531,0
2137,0.04541626876078761,0
2138,0.08037263319392927,0
2139,-0.07699097525087725,0
2140,0.37565013768202116,0
2141,3.8863019574099695,0
2142,6.741209943545742,0
2143,-0.7723002891180625,0
2144,-1.5647287058185173,0
2145,1.4673381154757665,0
2146,-0.7651983796687982,0
2147,0.2532913316165744,0
2148,0.1319109994195235,0
2149,0.03183341924558741,0
2150,0.0035553047499268797,0
2151,0.05343639865425527,0
2152,0.052699966177866514,0
2153,0.07109127254096986,0
2154,0.043091126911201934,0
2155,0.18690183825696954,0
2156,3.295824508357803e-05,0
2157,0.020638510732653468,0
2158,0.06858352597317657,0
2159,-0.04095301930467429,0
2160,0.37644269688866105,0
2161,3.9951089917873253,0
2162,6.822455656103194,0
2163,-0.8277347962142252,0
2164,-1.634278378107021,0
2165,1.4795205245769796,0
2166,-0.6774908011233177,0
2167,0.2665775130636101,0
2168,0.06239868686517688,0
2169,0.023735526877764472,0
2170,0.02628578386253984,0
2171,0.027519879058699338,0
2172,0.020630995518831283,0
2173,0.06918924251439279,0
2174,0.05825206469844102,0
2175,0.008929318990073334,0
2176,0.03136151806117643,0
2177,0.07042257908639928,0
2178,0.10184464033064025,0
2179,0.018307489282854,0
2180,0.5098206074908086,0
2181,3.9872693913646255,0
2182,6.797268727896581,0
2183,-0.866886278988777,0
2184,-1.4493130430381447,0
2185,1.6032387095056901,0
2186,-0.691588583929108,0
2187,0.21411778856110658,0
2188,0.07509065182989764,0
2189,-0.01372420188256265,0
2190,-0.030019833837521846,0
2191,0.021305169193766477,0
2192,0.024896330675363443,0
2193,0.0907101543049994,0
2194,-0.014626216956301728,0
2195,0.021383518808182934,0
2196,0.027759790217856198,0
2197,-0.019927106085897928,0
2198,-0.018076174120467112,0
2199,0.028393170990732023,0
2200,0.3442026063972749,0
2201,3.968554422037946,0
2202,6.7965823772792975,0
2203,-0.9303718334362949,0
2204,-1.5692378926583737,0
2205,1.509673686429995,0
2206,-0.656901042398547,0
2207,0.2892365182581238,0
2208,0.052562037339527565,0
2209,0.08762408130713872,0
2210,0.046102025228618365,0
2211,0.04464656066850469,0
2212,0.10469276957717749,0
2213,0.04469220210308254,0
2214,0.08918593798657168,0
2215,0.1581695202304249,0
2216,0.021667355580946956,0
2217,0.07549672457213044,0
2218,0.030041735342033936,0
2219,0.11986580222572547,0
2220,0.43876949281124583,0
2221,3.975251674036749,0
2222,6.853101456466449,0
2223,-0.8438297234144422,0
2224,-1.6225780048708112,0
2225,1.4912029402435385,0
2226,-0.694563257663183,0
2227,0.21972761690506262,0
2228,0.005065550990578649,0
2229,-0.04125922045431857,0
2230,0.087583382398791,0
2231,0.09993826786212867,0
2232,0.15754973950762383,0
2233,0.01594442057712253,0
2234,0.06345001343551364,0
2235,0.16304528128490164,0
2236,0.08792246815645541,0
2237,0.008600157165562075,0
2238,0.017204409998309647,0
2239,0.06839982009069712,0
2240,0.48019402448095444,0
2241,4.056522903140599,0
2242,6.767159718930304,0
2243,-0.7392278684790277,0
2244,-1.4969371338918926,0
2245,1.5679389116543223,0
2246,-0.7804262474105993,0
2247,0.36175582794923844,0
2248,0.07250589984005842,0
2249,0.06484087099010774,0
2250,0.12716326742754477,0
2251,0.13029018908878093,0
2252,0.10208021814372593,0
2253,-0.026520710950598235,0
2254,0.028349134342251836,0
2255,0.1196818445226677,0
2256,0.11290814334108021,0
2257,0.038715478373195555,0
2258,0.04852964789566978,0
2259,-0.006506691854293041,0
2260,0.4520575154593585,0
2261,4.006621100208387,0
2262,6.70728732755433,0
2263,-0.7481202349749873,0
2264,-1.5355930223537604,0
2265,1.5777017834924443,0
2266,-0.729762029031263,0
2267,0.2674605439771157,0
2268,0.04467473971626188,0
2269,0.07763239797077671,0
2270,0.09799274268905317,0
2271,-0.08065819140507334,0
2272,0.06510533123764058,0
2273,0.08142196852601438,0
2274,0.16653833490960931,0
2275,0.009661680888304387,0
2276,0.04949159506036901,0
2277,0.10230679217394599,0
2278,0.08066780686104237,0
2279,0.06362885922432904,0
2280,0.42244040657189014,0
2281,3.958625706860494,0
2282,6.78465638525164,0
2283,-0.8403240679699271,0
2284,-1.6015874620457413,0
2285,1.5244530435510195,0
2286,-0.7955818338177312,0
2287,0.27262744026026176,0
2288,-0.02013623490614562,0
2289,-0.03366976167490348,0
2290,-0.032392795577916834,0
2291,-0.05975520517781849,0
2292,0.09132523664503142,0
2293,0.04267370844234913,0
2294,0.05421811470580583,0
2295,0.07184623099325661,0
2296,0.11725237263901003,0
2297,0.08517786658413765,0
2298,0.008835679446699315,0
2299,0.16153411425696024,0
2300,0.4052057091099979,0
2301,3.9869414921322384,0
2302,6.726843821120863,0
2303,-0.7820089864203061,0
2304,-1.5028093824082875,0
2305,1.505306994990066,0
2306,-0.6702544836538659,0
2307,0.29712794668858766,0
2308,0.1601526039130698,0
2309,0.03177061387897413,0
2310,0.05932850991909915,0
2311,0.01974381330951981,0
2312,0.056995918890522725,0
2313,0.06042223747456162,0
2314,0.03519440588354958,0
2315,-0.005567085349935795,0
2316,0.0975493753165684,0
2317,0.10135559609909886,0
2318,0.04389366520067955,0
2319,0.11345943885731197,0
2320,0.37556957870487884,0
2321,3.974528691167552,0
2322,6.757726804208323,0
2323,-0.892120588295363,0
2324,-1.4638122252981076,0
2325,1.5761785264213664,0
2326,-0.7417984378741449,0
2327,0.2279021684294687,0
2328,0.129486340913948,0
2329,0.07675358420115402,0
2330,0.07232248987006659,0
2331,0.13739855238677687,0
2332,0.032895055652965036,0
2333,0.11469936199482228,0
2334,0.10612502969634291,0
2335,0.03255731236784652,0
2336,0.02474833350707556,0
2337,0.006748465406213364,0
2338,0.1667205254963673,0
2339,-0.045546948057249445,0
2340,0.42054934879594147,0
2341,3.864358120416295,0
2342,6.776877929250724,0
2343,-0.8049588116966057,0
2344,-1.588000173977175,0
2345,1.5105648425989522,0
2346,-0.7988357752376091,0
2347,0.1703171498249713,0
2348,0.019240673489104,0
2349,0.026196008462364473,0
2350,0.0727979150396789,0
2351,0.04690200545577743,0
2352,0.02902726702526604,0
2353,0.09221602855496873,0
2354,0.027935963913995776,0
2355,0.11377222107526921,0
2356,0.10567464466984364,0
2357,0.031153396909458057,0
2358,-0.021788806506868832,0
2359,0.024497408908047323,0
2360,0.35019176539028646,0
2361,4.000119755597566,0
2362,6.762854079310732,0
2363,-0.9114850874187561,0
2364,-1.4617069877893556,0
2365,1.5278069901982994,0
2366,-0.7343366056071847,0
2367,0.3426386405418361,0
2368,0.03656987278913207,0
2369,-0.02761665658205206,0
2370,0.09736784794807747,0
2371,-0.07538792604704295,0
2372,0.08620500274435725,0
2373,0.05702169115652174,0
2374,0.0572884865802151,0
2375,-0.014158764363350437,0
2376,0.04694759249161841,0
2377,0.05738821952326238,0
2378,-0.04030374351129758,0
2379,-0.01615995106180422,0
2380,0.40637405388657755,0
2381,3.9106357177239137,0
2382,6.747765607563694,0
2383,-0.8449820073433235,0
2384,-1.5257621593458286,0
2385,1.5104711477675314,0
2386,-0.7712250769002125,0
2387,0.11513850653826257,0
2388,0.04821610370459877,0
2389,0.029408763458394882,0
2390,0.05428213167935167,0
2391,0.044017613959273144,0
2392,0.0832193373313851,0
2393,0.004148059825990959,0
2394,-0.028708606219433837,0
2395,0.011607362069608995,0
2396,0.03892581807425665,0
2397,-0.02021287967561741,0
2398,-0.020359593667976454,0
2399,0.036982623673881304,0
2400,0.4185625921856577,0
2401,4.036936394296529,0
2402,6.712878983684261,0
2403,-0.9230562961672363,0
2404,-1.6350922131940806,0
2405,1.392237592502992,0
2406,-0.8484238834831183,0
2407,0.19372335795173248,0
2408,0.026586024107378033,0
2409,0.017100105594098747,0
2410,-0.019296288610007935,0
2411,-0.027662375514652195,0
2412,-0.028791889200273788,0
2413,0.09665775845558222,0
2414,-0.05357279108646046,0
2415,0.014635341703724443,0
2416,-0.06755468072176092,0
2417,-0.007138063789187724,0
2418,-0.06640683141487227,0
2419,0.011854505836557339,0
2420,0.33218182570570115,0
2421,3.9472957307864966,0
2422,6.599679091985645,0
2423,-0.9273268596446662,0
2424,-1.5255763561716504,0
2425,1.368900219518305,0
2426,-0.9000956789402572,0
2427,0.18928759091270458,0
2428,-0.07306217535081735,0
2429,-0.15064918590307405,0
2430,-0.10253799739238158,0
2431,0.0027523183549410107,0
2432,-0.012943412703174166,0
2433,-0.08156280638701499,0
2434,-0.12486446246351067,0
2435,-0.05199830075061283,0
2436,-0.032680541847323163,0
2437,-0.04855924537788422,0
2438,-0.0184417283976968,0
2439,-0.10213885383210941,0
2440,0.46894972694888015,0
2441,3.900894702587517,0
2442,6.6966654137015995,0
2443,-0.9159816743739997,0
2444,-1.4901443208284093,0
2445,1.4246765837239823,0
2446,-0.7087853625760964,0
2447,0.30066232700148016,0
2448,-0.02837544080148744,0
2449,0.008239055658227454,0
2450,0.07674988907409742,0
2451,0.03297890242826255,0
2452,0.044107099145759235,0
2453,-0.016010871940097496,0
2454,-0.11339660967365647,0
2455,0.04184571821226726,0
2456,-0.03293688995675474,0
2457,0.07473563496141516,0
2458,0.042424493863961944,0
2459,-0.002747712127986704,0
2460,0.3364180641942193,0
2461,3.9474502838737178,0
2462,6.610366222415327,0
2463,-1.0333400408681834,0
2464,-1.5347283579537072,0
2465,1.3861710221464232,0
2466,-0.8032204848641187,0
2467,0.14184427803975722,0
2468,-0.05335286237154507,0
2469,-0.011848116263350472,0
2470,0.008290868599210036,0
2471,0.022486559437421578,0
2472,0.05066379337020488,0
2473,0.07192834198995159,0
2474,0.03625418783719653,0
2475,-0.027854245850736894,0
2476,0.03597322574104528,0
2477,0.0021709398243861372,0
2478,-0.022638351682559142,0
2479,-0.0028828125058660784,0
2480,0.38847867733593994,0
2481,4.002614312319142,0
2482,6.5605928162705895,0
2483,-1.002784499565404,0
2484,-1.5368135281500592,0
2485,1.3568737029244216,0
2486,-0.7880705837208021,0
2487,0.21034937294685147,0
2488,-0.013910333455925754,0
2489,-0.04371649554189731,0
2490,0.0561155765375512,0
2491,0.004577784303045445,0
2492,0.1415827596734203,0
2493,0.032618435955533945,0
2494,0.14407617372574955,0
2495,-0.008706028813048102,0
2496,0.03395649497695424,0
2497,0.0729541249390144,0
2498,0.010806561661848733,0
2499,0.02657679495033016,0
2500,0.38231766802186046,0
2501,3.941038929850777,0
2502,6.712678822657909,0
2503,-0.8817948071319507,0
2504,-1.6334472467060352,0
2505,1.423803902719747,0
2506,-0.6882127767798198,0
2507,0.23502159226090516,0
2508,0.021647651788510667,0
2509,0.061060564226430664,0
2510,0.09817962965305434,0
2511,0.0956067716315517,0
2512,0.07187659376893027,0
2513,-0.0022002943905489736,0
2514,0.07968722426106398,0
2515,-0.05091817868990048,0
2516,0.003512642308075759,0
2517,0.08511387421292353,0
2518,0.10657525893501821,0
2519,0.022231860492328892,0
2520,0.34781295630684006,0
2521,3.990846985620666,0
2522,6.666394571067519,0
2523,-0.9546176321020456,0
2524,-1.5540229617633228,0
2525,1.4890468801030832,0
2526,-0.7476602699704673,0
2527,0.19752509116659756,0
2528,-0.05832757122774273,0
2529,-0.02083261207982186,0
2530,0.03311816122408461,0
2531,0.03534620830022041,0
2532,0.09522616125506239,0
2533,-0.013462931050233697,0
2534,0.039181587784071145,0
2535,0.06687671813836112,0
2536,-0.01434357483434217,0
2537,0.08217536431057199,0
2538,0.04148286596413759,0
2539,0.047008461552494704,0
2540,0.39842609907579646,0
2541,3.969251818606327,0
2542,6.712756375843273,0
2543,-0.8780673436995713,0
2544,-1.5326160379160767,0
2545,1.4948105765650401,0
2546,-0.7355119223840028,0
2547,0.25550922065737175,0
2548,-0.02126229433503033,0
2549,-0.1087547805700439,0
2550,0.027723189750343016,0
2551,0.02428624908495692,0
2552,0.01689384055135002,0
2553,-0.11944632837649487,0
2554,-0.04454087493249889,0
2555,-0.08609547122549754,0
2556,-0.031401938563756476,0
2557,-0.12038525852427749,0
2558,-0.029849310033008346,0
2559,0.03582391679993456,0
2560,0.37260522145633784,0
2561,3.990363216656469,0
2562,6.6776047359312685,0
2563,-0.9787002914051661,0
2564,-1.6482699344925633,0
2565,1.397056681757047,0
2566,-0.7817100898721256,0
2567,0.14356982845966143,0
2568,-0.113631155333472,0
2569,-0.14410725701808935,0
2570,-0.12590278902764476,0
2571,-0.003767147233397411,0
2572,-0.14672112912551005,0
2573,-0.09693853519296043,0
2574,-0.12386938610353136,0
2575,-0.091919367394547,0
2576,-0.09096461126762247,0
2577,0.011948030450238567,0
2578,6.0200461616123635e-05,0
2579,-0.08099186751335674,0
2580,0.3490772198006765,0
2581,3.963768357343596,0
2582,6.569994781838027,0
2583,-0.9474221792679639,0
2584,-1.502518253465486,0
2585,1.4276031523316564,0
2586,-0.831885501082241,0
2587,0.2959130714185445,0
2588,-0.031032194803015178,0
2589,-0.07747772282553614,0
2590,0.024660157173466674,0
2591,-0.03880254846354739,0
2592,0.007964002291696227,0
2593,-0.011873687483090999,0
2594,0.01604437305418506,0
2595,0.017352086531389775,0
2596,0.04814024645082493,0
2597,0.06716603370368047,0
2598,0.028568955175565347,0
2599,0.013695327794515284,0
2600,0.4107812019994394,0
2601,3.9472454339342407,0
2602,6.73318295965536,0
2603,-0.9576772154529013,0
2604,-1.5384958465096212,0
2605,1.426686691315539,0
2606,-0.7731110355579983,0
2607,0.21292956304569202,0
2608,0.036031256560726595,0
2609,-0.04116270684122782,0
2610,0.05280502224247001,0
2611,-0.09388531527252512,0
2612,-0.07810730978797281,0
2613,-0.06437187952708846,0
2614,-0.042399359094235894,0
2615,0.013438467355539222,0
2616,-0.06604505770956523,0
2617,0.001003012763460688,0
2618,-0.03770172234989812,0
2619,0.04288928446335258,0
2620,0.39044444855573013,0
2621,4.003896132810114,0
2622,6.588888130830214,0
2623,-0.9718067568611731,0
2624,-1.5317008004422092,0
2625,1.412916190307881,0
2626,-0.775397330635816,0
2627,0.19198068977389968,0
2628,-0.14387331956458668,0
2629,-0.05619368469508573,0
2630,0.019168047071705434,0
2631,0.0885269470187252,0
2632,0.04327091898481327,0
2633,0.0843566266385169,0
2634,-0.02517443121971149,0
2635,-0.012482216727500113,0
2636,0.02122489115540823,0
2637,-0.01863964990172126,0
2638,-0.0348940396213916,0
2639,-0.0308073791188298,0
2640,0.38841527496660344,0
2641,3.8900073239375423,0
2642,6.67601690043276,0
2643,-0.8756548284030757,0
2644,-1.4731645061756204,0
2645,1.4386424424793591,0
2646,-0.6684139656557738,0
2647,0.13592385443511368,0
2648,-0.06163422003208664,0
2649,-0.04274990195134334,0
2650,0.02675268455274997,0
2651,0.02506649548347662,0
2652,-0.054304444633418235,0
2653,-0.05980450843037792,0
2654,-0.026462059265992842,0
2655,0.008929376644550135,0
2656,-0.07781958763441585,0
2657,-0.14181613573886614,0
2658,-0.041558259325828295,0
2659,-0.06760910785206536,0
2660,0.4290687821603767,0
2661,3.9134517203410812,0
2662,6.5507656444450415,0
2663,-0.9637787170117073,0
2664,-1.5765333555461807,0
2665,1.471079876521538,0
2666,-0.8154499061779055,0
2667,0.2859276502251609,0
2668,-0.019037749962823786,0
2669,-0.10958259984043349,0
2670,0.07438587033048306,0
2671,0.030802869719217855,0
2672,-0.08280184895657743,0
2673,0.07987787655403285,0
2674,-0.012045643806868947,0
2675,0.07391659052809173,0
2676,-0.04336333030374244,0
2677,0.011478822156867786,0
2678,0.013786468366406294,0
2679,-0.046503066185670974,0
2680,0.37360189649435793,0
2681,3.952749057051215,0
2682,6.622573098367965,0
2683,-1.0306723348307494,0
2684,-1.5445262656584609,0
2685,1.4383296619844492,0
2686,-0.8257139879333744,0
2687,0.22979917344754744,0
2688,-0.04412739198007937,0
2689,-0.09664184909501669,0
2690,-0.03172217218557166,0
2691,-0.04840686555491013,0
2692,0.02896435193148023,0
2693,-0.1851689169960897,0
2694,-0.05612030621260605,0
2695,-0.0010555681536901854,0
2696,0.01479494497736708,0
2697,-0.0010435858774319115,0
2698,-0.017532865162026477,0
2699,-0.042614869205939654,0
2700,0.39730133228362213,0
2701,3.929175508833298,0
2702,6.693648487641438,0
2703,-1.0370349014561304,0
2704,-1.486179684675509,0
2705,1.4418763816378903,0
2706,-0.8008881544730593,0
2707,0.15852471374736637,0
2708,-0.059846883192060676,0
2709,-0.05686135736582846,0
2710,-0.03361074823293107,0
2711,-0.08369858661914245,0
2712,-0.041031619014586906,0
2713,-0.056008246335265265,0
2714,-0.07202970218170139,0
2715,-0.03354617042444776,0
2716,-0.03752922789084169,0
2717,0.0009245421561365486,0
2718,-0.011250018614145003,0
2719,-0.06456441537748324,0
2720,0.3482435229121554,0
2721,3.986603303458915,0
2722,6.6562441528135645,0
2723,-1.025680412080231,0
2724,-1.5350372016027458,0
2725,1.336460225736517,0
2726,-0.8624383160873168,0
2727,0.14766335716525258,0
2728,-0.07186345887598763,0
2729,-0.04387165193269196,0
2730,-0.007198036831253786,0
2731,-0.09587184139803792,0
2732,-0.013102499671846603,0
2733,-0.13775006232866016,0
2734,-0.14694530036360537,0
2735,-0.024919774502303427,0
2736,-0.07839396192972754,0
2737,-0.0645350169548439,0
2738,-0.002881136354747321,0
2739,0.02748271510013036,0
2740,0.2245669874004344,0
2741,3.874708720918001,0
2742,6.7001820542043555,0
2743,-1.0675089482697924,0
2744,-1.5392831955143411,0
2745,1.4437630950932296,0
2746,-0.8119173865863896,0
2747,0.11062306691714095,0
2748,-0.07008857616608324,0
2749,-0.0951108743570743,0
2750,-0.04324945542682493,0
2751,-0.03583192101124878,0
2752,-0.056867883449427004,0
2753,-0.06653087465053116,0
2754,-0.12184546474641123,0
2755,-0.11932536347598585,0
2756,-0.00993551796976938,0
2757,-0.06884057569848094,0
2758,-0.05182638282935992,0
2759,0.03827425729241322,0
2760,0.33016693211404485,0
2761,3.898986616708548,0
2762,6.506461785251076,0
2763,-1.0724007741723511,0
2764,-1.6597694319384046,0
2765,1.4297231898437885,0
2766,-0.8411664122289212,0
2767,0.24089162231180442,0
2768,-0.0038795082405992318,0
2769,-0.010543276926855638,0
2770,0.01969439209688368,0
2771,0.07466015764849157,0
2772,-0.06211386128653704,0
2773,-0.07513654341143854,0
2774,-0.061707587137543575,0
2775,-0.007745931402994469,0
2776,-0.04990952669782041,0
2777,-0.009918590580340527,0
2778,-0.02481788183585648,0
2779,0.026385573134935364,0
2780,0.33949170911840076,0
2781,3.9249620127115894,0
2782,6.569216758585233,0
2783,-1.0279069449723706,0
2784,-1.6466291891387386,0
2785,1.3688913449804443,0
2786,-0.7999196610138816,0
2787,0.223436331063529,0
2788,0.02704116878242481,0
2789,-0.09058804878544308,0
2790,-0.04163661427704556,0
2791,-0.0071801989333076174,0
2792,-0.02150025118219114,0
2793,-0.06315550551182625,0
2794,0.006842346665854829,0
2795,-0.11393916428048406,0
2796,0.017901675764889137,0
2797,-0.040803734333670995,0
2798,-0.0044496918555607945,0
2799,0.014477086885119048,0
2800,0.35432803791405826,0
2801,4.035474553100607,0
2802,6.636903071273269,0
2803,-1.039929253007972,0
2804,-1.5060092787973218,0
2805,1.4228487489257913,0
2806,-0.7818417546961758,0
2807,0.1283553740239125,0
2808,-0.07638939300011591,0
2809,-0.10712656076208027,0
2810,-0.052749811392946995,0
2811,0.001748533750407781,0
2812,-0.03905757824773786,0
2813,-0.06605564355301605,0
2814,-0.08463245502208622,0
2815,-0.00845526609485582,0
2816,-0.09163141042218008,0
2817,-0.09747933269345113,0
2818,0.01103677410309566,0
2819,-0.006595735202570802,0
2820,0.37872983789423986,0
2821,3.9868798454504546,0
2822,6.637862680565534,0
2823,-1.116475089442448,0
2824,-1.5652152326916164,0
2825,1.4333960721401138,0
2826,-0.8338763888850299,0
2827,0.1952387205131584,0
2828,-0.032356976679236635,0
2829,-0.09117390087050012,0
2830,0.009798443851655007,0
2831,0.013636528394349288,0
2832,-0.014584469289071,0
2833,-0.03877329667256497,0
2834,0.048672839681091894,0
2835,0.04203896545967283,0
2836,0.062642053012806,0
2837,0.037758216005899015,0
2838,0.02008641468005549,0
2839,0.025094311763154412,0
2840,0.32390888076844815,0
2841,4.0442651654340285,0
2842,6.664968149924795,0
2843,-0.9883773431916867,0
2844,-1.4855477009358622,0
2845,1.5245085823240536,0
2846,-0.8025188571745301,0
2847,0.18970020274750524,0
2848,0.06601462809868842,0
2849,-0.001575533040362287,0
2850,-0.07731246292888737,0
2851,-0.008101399160833689,0
2852,-0.0011349266706320964,0
2853,-0.0948852919734415,0
2854,0.014619641488233595,0
2855,0.03641247913137882,0
2856,-0.06941646292985088,0
2857,-0.06953300031965219,0
2858,0.0024686183821239736,0
2859,-0.03331827516662217,0
2860,0.3607130128178589,0
2861,3.8710928199429064,0
2862,6.65346109813999,0
2863,-1.0844730442776351,0
2864,-1.4839854983201495,0
2865,1.5084433879083694,0
2866,-0.9131822023995766,0
2867,0.26418140335691653,0
2868,0.07432378236710026,0
2869,0.018738774751480496,0
2870,0.04905307961351679,0
2871,0.04506844149422919,0
2872,0.005205605954548578,0
2873,-0.09786806871252215,0
2874,-0.01765902615621806,0
2875,0.03869388558152044,0
2876,-0.012037663181989317,0
2877,-0.014125675917569497,0
2878,-0.016218255637924527,0
2879,-0.012708663069504814,0
2880,0.32281671486372226,0
2881,3.9340316571597906,0
2882,6.6791431431737935,0
2883,-1.0790285901082257,0
2884,-1.4686971185540687,0
2885,1.3680537453913624,0
2886,-0.728550154933687,0
2887,0.205766038217545,0
2888,-0.12802745074279942,0
2889,-0.06111972752818993,0
2890,0.08351787030624469,0
2891,-0.10553282892772511,0
2892,0.010997335498582117,0
2893,0.007019875294605265,0
2894,0.04059477547413713,0
2895,0.011209233086856642,0
2896,-0.007956467980129608,0
2897,-0.057645028204333607,0
2898,0.060300287290957086,0
2899,-0.0135108041789942,0
2900,0.48851760023245105,0
2901,4.044456097028913,0
2902,6.638291164079733,0
2903,-1.024809451897501,0
2904,-1.5180829609045934,0
2905,1.4704981144535898,0
2906,-0.7228881232107506,0
2907,0.2252739319524522,0
2908,0.09912562398264016,0
2909,0.0011767835509317107,0
2910,-0.07415468640845468,0
2911,-0.023394544811261065,0
2912,-0.015286752777754918,0
2913,-0.013777913051526976,0
2914,0.006574852264809347,0
2915,-0.04704258663650555,0
2916,0.04929870381311745,0
2917,0.060633588446724895,0
2918,0.08627619345434356,0
2919,0.1123572348666518,0
2920,0.45788750979646053,0
2921,4.1391858630021305,0
2922,6.693861612993814,0
2923,-0.9534148128890987,0
2924,-1.406558314061335,0
2925,1.463524275071216,0
2926,-0.7369905821047199,0
2927,0.2828907144768103,0
2928,0.028277702020863865,0
2929,-0.024239185678590236,0
2930,0.04117776321652305,0
2931,0.09702420303195824,0
2932,0.019150143661234482,0
2933,-0.00698905310093377,0
2934,0.052647068331591315,0
2935,-0.07226137628885054,0
2936,0.007604555375464065,0
2937,0.03988988797381446,0
2938,0.08258191203569695,0
2939,-0.01222342401880766,0
2940,0.4266327239412859,0
2941,4.09316692467992,0
2942,6.6339090610494855,0
2943,-1.1286638018556314,0
2944,-1.403914441258087,0
2945,1.4323335554311531,0
2946,-0.7231763778313819,0
2947,0.2944384876679995,0
2948,0.08541266365281346,0
2949,0.031187738990691164,0
2950,0.06609985966847687,0
2951,-0.016643501354888367,0
2952,0.009444776324898457,0
2953,0.020188228070352886,0
2954,0.013551899619007846,0
2955,0.061267895816812634,0
2956,-0.05470829655948339,0
2957,-0.03252231576500055,0
2958,0.06272655033453758,0
2959,-0.012714677863840604,0
2960,0.4481597545870278,0
2961,4.1774392324065985,0
2962,6.6362570111437735,0
2963,-1.057583346370152,0
2964,-1.4052159935174529,0
2965,1.5076301105807801,0
2966,-0.7260465719445985,0
2967,0.20156663742127592,0
2968,-0.021010802520527984,0
2969,-0.04775123267567171,0
2970,0.024551220371600117,0
2971,-0.005211906931567641,0
2972,-0.03450754453660418,0
2973,0.12555953429728844,0
2974,0.16614659845643137,0
2975,0.012865214496743112,0
2976,0.046628897528625965,0
2977,0.10316640248596226,0
2978,0.023640474331777447,0
2979,0.06988839948828152,0
2980,0.454888870785124,0
2981,4.163922759630166,0
2982,6.802684804851649,0
2983,-1.0203271700507364,0
2984,-1.4438387747036805,0
2985,1.559710745173193,0
2986,-0.6806120433513548,0
2987,0.27892933587566965,0
2988,0.15173970226237787,0
2989,0.07062409172094641,0
2990,0.08454291642258771,0
2991,0.09232883256704666,0
2992,0.07958150532510343,0
2993,0.06256559507528454,0
2994,0.0827754652764234,0
2995,0.1642733886658309,0
2996,0.08032719900971216,0
2997,-0.012965091547223723,0
2998,0.02704317229894937,0
2999,0.023985528029195166,0
3000,0.3879633433146167,0
3001,4.1387633678732305,0
3002,6.716878950909167,0
3003,-0.9782089809761443,0
3004,-1.4555499545499444,0
3005,1.5850940061378636,0
3006,-0.6707598566946553,0
3007,0.30378345284486913,0
3008,0.14474557787244297,0
3009,0.10067700769205642,0
3010,0.16778584615503517,0
3011,0.012964746155150975,0
3012,0.08253956071022982,0
3013,0.11696120763708008,0
3014,0.09958358766172162,0
3015,0.06888854875418265,0
3016,0.13335241987930962,0
3017,0.13261615947678715,0
3018,0.06898349306072304,0
3019,0.059866510270547846,0
3020,0.41671860457028853,0
3021,4.010640558132534,0
3022,6.675839076839057,0
3023,-1.0549919583357572,0
3024,-1.4297478888179702,0
3025,1.5426998057367542,0
3026,-0.8340138399335484,0
3027,0.3027151541358592,0
3028,0.05178142025942551,0
3029,0.06658658932884914,0
3030,0.10221158260544722,0
3031,0.0011587060171142985,0
3032,0.08233168508698292,0
3033,0.04555009856574496,0
3034,-0.007897622246285152,0
3035,0.06773606674022659,0
3036,-0.03532381692112996,0
3037,0.02698329099551193,0
3038,0.10913230339114185,0
3039,0.06449852778777432,0
3040,0.49212347361746034,0
3041,4.064337159576182,0
3042,6.704739455387134,0
3043,-1.0711314282076199,0
3044,-1.3757424251697201,0
3045,1.5418918088364328,0
3046,-0.7230700190850177,0
3047,0.2846253904659367,0
3048,0.02431781612493889,0
3049,0.04991761533933699,0
3050,0.05016425475610147,0
3051,0.007470918995923413,0
3052,0.06476723510089352,0
3053,0.13895668581962844,0
3054,0.0073034535288105246,0
3055,0.09445696033416519,0
3056,0.16113895232494369,0
3057,0.061631229913759696,0
3058,0.007927798787615799,0
3059,0.064690973393208,0
3060,0.47329142195107804,0
3061,4.116626205245623,0
3062,6.656139079428183,0
3063,-0.9957743896444471,0
3064,-1.501882790338279,0
3065,1.4580973576349265,0
3066,-0.7172517275100355,0
3067,0.23714824976905446,0
3068,-0.03558543728196733,0
3069,0.004701829474785854,0
3070,0.008480055332597231,0
3071,0.03664933141712161,0
3072,0.02787020942280302,0
3073,0.05318360963915571,0
3074,0.04502702131162621,0
3075,0.021166331652052953,0
3076,0.05898614099809045,0
3077,0.12482211774977295,0
3078,0.10915998869666865,0
3079,0.08637420975788282,0
3080,0.5029177459489372,0
3081,4.100637142066109,0
3082,6.716155007312793,0
3083,-0.9449297590866279,0
3084,-1.3659399002249955,0
3085,1.5194457857786452,0
3086,-0.7141864493080798,0
3087,0.32111750067156486,0
3088,0.1808123524375529,0
3089,0.040862289588276784,0
3090,0.049657210558117004,0
3091,0.13545806104572783,0
3092,-0.004485840696355714,0
3093,0.11175660903958434,0
3094,0.0921412241932825,0
3095,0.031243576135189258,0
3096,-0.014141856684995043,0
3097,-0.007643391087933311,0
3098,0.018988563287602303,0
3099,0.022809424147325646,0
3100,0.48473969945803386,0
3101,4.049105909856803,0
3102,6.56937717745373,0
3103,-1.11927865019891,0
3104,-1.4495716161206178,0
3105,1.2746835684804003,0
3106,-0.74887067477662,0
3107,0.2044280156901154,0
3108,-0.00025848686769000886,0
3109,0.041527290156221704,0
3110,-0.020459258878204704,0
3111,0.05487469283992083,0
3112,0.0685431364269932,0
3113,0.03053005627660397,0
3114,0.060614169196384314,0
3115,0.10152589672682834,0
3116,0.05835115840594772,0
3117,0.07480024673246499,0
3118,0.1067562235821337,0
3119,0.008671285869687925,0
3120,0.36839211525629406,0
3121,3.9914144016180098,0
3122,6.559289220234058,0
3123,-1.0377855588939369,0
3124,-1.426138951368894,0
3125,1.3878029726537875,0
3126,-0.822216991384505,0
3127,0.2317341561269072,0
3128,-0.06630612532406459,0
3129,-0.010476243961204515,0
3130,-0.07111099603835351,0
3131,0.029566961540073232,0
3132,-0.0725875947833995,0
3133,-0.07764749547498115,0
3134,-0.005600507770934486,0
3135,0.013012397106923885,0
3136,-0.07682764764399325,0
3137,-0.061898658088690085,0
3138,-0.05226358554080116,0
3139,-0.1279857164545215,0
3140,0.404632581507951,0
3141,4.072306253201035,0
3142,6.698387599222492,0
3143,-1.072009481575836,0
3144,-1.407871094227354,0
3145,1.4778474517260176,0
3146,-0.7236152644970437,0
3147,0.30167600114210036,0
3148,0.011178965458877905,0
3149,-0.10784577028847855,0
3150,-0.013541785686861336,0
3151,0.0307658426762603,0
3152,0.033124890866798436,0
3153,-0.1049297320074368,0
3154,0.03730016217716139,0
3155,-0.02147460494140381,0
3156,-0.07703553827865547,0
3157,0.0498440175619972,0
3158,0.01604443682331892,0
3159,0.04163773222473951,0
3160,0.35874573940044235,0
3161,4.000109479426918,0
3162,6.688606414311836,0
3163,-1.067415135033105,0
3164,-1.4558793539995518,0
3165,1.3920006112831635,0
3166,-0.7028235904110204,0
3167,0.1942561732914715,0
3168,0.01075930370252451,0
3169,-0.02440983918205493,0
3170,-0.01195140382460446,0
3171,-0.008586244241275725,0
3172,0.04389138302489708,0
3173,0.09869838932368075,0
3174,-0.07693141677239268,0
3175,-0.0861040702519856,0
3176,-0.09233906884120781,0
3177,-0.07065091829991321,0
3178,-0.020776583236300456,0
3179,-0.005609199941473322,0
3180,0.3541586447632736,0
3181,4.054123628176434,0
3182,6.646260047024055,0
3183,-1.1458359581275928,0
3184,-1.3924985129922576,0
3185,1.3740248022136805,0
3186,-0.77029634178795,0
3187,0.13769703996356825,0
3188,-0.0069063146811386145,0
3189,-0.006820203815115118,0
3190,-0.014534660205400708,0
3191,-0.04954956723578516,0
3192,-0.006942963033045951,0
3193,-0.04515491474622287,0
3194,-0.09612159184286972,0
3195,-0.026740688287641774,0
3196,0.00962392082490731,0
3197,-0.06828003387147116,0
3198,-0.033773256720744306,0
3199,-0.05157998772780426,0
3200,0.34243155818482474,0
3201,4.037455505252165,0
3202,6.697509415807782,0
3203,-1.1805283833510385,0
3204,-1.5172228128011942,0
3205,1.3556680120623028,0
3206,-0.9526219210019827,0
3207,0.20903527901781038,0
3208,0.012573848716027042,0
3209,-0.03318256465411009,0
3210,-0.0376488495072145,0
3211,-0.04383292195506214,0
3212,-0.038394195809477304,0
3213,-0.20357525332020993,0
3214,0.0059220596713754695,0
3215,-0.06892020732341898,0
3216,-0.04719153109580311,0
3217,-0.04072801750573292,0
3218,-0.07131726398756685,0
3219,-0.08006829905008467,0
3220,0.34372130080346985,0
3221,3.983698517420589,0
3222,6.610573937036822,0
3223,-1.1705122254320581,0
3224,-1.5758253456313218,0
3225,1.4072786233304007,0
3226,-0.8717119370330497,0
3227,0.19853346650907286,0
3228,-0.05119927429542109,0
3229,-0.033951820930375264,0
3230,-0.12960336140111042,0
3231,-0.139345062671906,0
3232,-0.028943085396167488,0
3233,-0.0660871813902808,0
3234,-0.1163794778366001,0
3235,-0.05778859941965864,0
3236,-0.0881165798781747,0
3237,-0.06889284236286528,0
3238,0.11041107323616252,0
3239,0.10728873957659639,0
3240,0.34807781434658475,0
3241,4.017499344483081,0
3242,6.674492726885319,0
3243,-1.2185825795302434,0
3244,-1.5144651413840107,0
3245,1.4200111552482004,0
3246,-0.748856048034782,0
3247,0.2081996659525631,0
3248,-0.16436388554647044,0
3249,0.036854191498986,0
3250,0.11496012853731956,0
3251,0.04128470424108473,0
3252,-0.09891037620793763,0
3253,0.03495394651743377,0
3254,-0.002070384390715777,0
3255,-0.0005833180030714313,0
3256,0.042864148201732524,0
3257,-0.015370623536948175,0
3258,-0.059692571199891784,0
3259,0.005486621760156511,0
3260,0.3954994175522319,0
3261,4.077973515499894,0
3262,6.6025547976852055,0
3263,-1.1805324773990755,0
3264,-1.3326320379957426,0
3265,1.4877313205212588,0
3266,-0.881431984730579,0
3267,0.08783594074166014,0
3268,-0.04063323565314264,0
3269,0.06826645310626461,0
3270,-0.034601361425975856,0
3271,0.02014808829336877,0
3272,-0.08239673214393528,0
3273,-0.11564654166139811,0
3274,-0.06315201160788676,0
3275,-0.06892382410273123,0
3276,-0.07341569639007946,0
3277,-0.035162509460322136,0
3278,-0.07188019428105467,0
3279,-0.0021279826278939803,0
3280,0.3789906406461048,0
3281,4.003286091004408,0
3282,6.554680011027249,0
3283,-1.1618733844536964,0
3284,-1.4588959595243807,0
3285,1.3050975376147949,0
3286,-0.7815792787223279,0
3287,0.23213699685612332,0
3288,-0.057685241811068905,0
3289,-0.05986802933541738,0
3290,-0.048630339043607376,0
3291,0.03406280269030909,0
3292,0.04048674329358269,0
3293,-0.0172992120490308,0
3294,0.007127539901773339,0
3295,-0.1219049469911232,0
3296,0.026161264990123535,0
3297,0.011656191673456447,0
3298,-0.0767566566329636,0
3299,-0.07615750353562231,0
3300,0.38142412524227637,0
3301,4.0792343903049595,0
3302,6.573080113743799,0
3303,-1.2270965114110395,0
3304,-1.498814421427088,0
3305,1.324549504191667,0
3306,-0.842099825853599,0
3307,0.1782068548298434,0
3308,-0.03785005346555235,0
3309,-0.0760472813524844,0
3310,0.02342649974310409,0
3311,0.03738218883943625,0
3312,0.06330570177522715,0
3313,0.0064094548789445475,0
3314,0.0546218052359104,0
3315,0.051332122756594475,0
3316,-0.000849499715028585,0
3317,0.0287703610472672,0
3318,0.05841721962299248,0
3319,0.14485891694194503,0
3320,0.47062015294345605,0
3321,4.141889866650428,0
3322,6.601174064692386,0
3323,-1.1150776888902216,0
3324,-1.358510664607328,0
3325,1.3655939819308536,0
3326,-0.775068715569044,0
3327,0.18358957800330422,0
3328,0.023965681731766622,0
3329,-0.044430487452052234,0
3330,0.02170657992679863,0
3331,-0.016327537982723055,0
3332,0.015962199265675273,0
3333,-0.03634855672874834,0
3334,0.019126877626325277,0
3335,0.030475972884036764,0
3336,0.07329160447342623,0
3337,0.03627604416968658,0
3338,0.060811027963072195,0
3339,0.07685889909113174,0
3340,0.46595520620946446,0
3341,4.211657382490518,0
3342,6.733808284746009,0
3343,-1.0258499688993372,0
3344,-1.26578439503002,0
3345,1.4516483689330593,0
3346,-0.662793035126156,0
3347,0.32314455299512257,0
3348,-0.02207221975984055,0
3349,-0.050416051342314,0
3350,0.03951727479500278,0
3351,-0.03947939048483999,0
3352,-0.0075593975817674006,0
3353,-0.02857522492198324,0
3354,0.0012450141342310664,0
3355,-0.12712025129775806,0
3356,-0.0020840022206473907,0
3357,0.004441256284825633,0
3358,-0.04209467673540537,0
3359,-0.12200021120846702,0
3360,0.4205291890042143,0
3361,4.145818177415909,0
3362,6.538681142113562,0
3363,-1.1247037105359232,0
3364,-1.3740155120953943,0
3365,1.389639518969468,0
3366,-0.7273370239877128,0
3367,0.27166669220787404,0
3368,-0.06332935607372922,0
3369,0.021009340021044556,0
3370,0.010384871220464378,0
3371,-0.06263353826991884,0
3372,-0.12470896777620871,0
3373,0.08198928694953672,0
3374,-0.01999981998774441,0
3375,-0.01429480814049941,0
3376,0.12120522326777003,0
3377,-0.04491301125507505,0
3378,0.043455050618188634,0
3379,-0.03581936091219739,0
3380,0.31123910181050224,0
3381,4.135476568765947,0
3382,6.5095208947984755,0
3383,-1.1181498869815012,0
3384,-1.3921246952207023,0
3385,1.3228520453330959,0
3386,-0.7801694678366301,0
3387,0.3018191985949291,0
3388,-0.006245633100348737,0
3389,-0.059935209231057135,0
3390,0.02622974593144155,0
3391,-0.09700504734904972,0
3392,0.014687447833682137,0
3393,-0.017051198637298086,0
3394,-0.04400132007999045,0
3395,0.04357159344011368,0
3396,-0.0024601347613705925,0
3397,0.04938259257598892,0
3398,0.038159421203654766,0
3399,-0.05079186231291523,0
3400,0.3074992035719154,0
3401,4.081591399098344,0
3402,6.625399693490113,0
3403,-1.204087308198678,0
3404,-1.349235048610892,0
3405,1.4083901631166735,0
3406,-0.8542028673275208,0
3407,0.23955588280844606,0
3408,0.011361389348457212,0
3409,-0.025654444495987562,0
3410,0.034513882073046495,0
3411,-0.04533470766506641,0
3412,0.07829419923133783,0
3413,0.026529260539443635,0
3414,-0.02268468339362792,0
3415,-0.04267066523828457,0
3416,0.023797312072755657,0
3417,0.007090045688583389,0
3418,-0.039603444481150524,0
3419,0.08512847566523996,0
3420,0.4893329114754562,0
3421,4.137420097261961,0
3422,6.609606506289269,0
3423,-1.2215091324652483,0
3424,-1.37332817512932,0
3425,1.3492330075231616,0
3426,-0.8252885737053306,0
3427,0.16304286949724828,0
3428,-0.10189077276046749,0
3429,-0.06284457971073287,0
3430,-0.04728442950593652,0
3431,-0.017165200300582596,0
3432,-0.019646646450489233,0
3433,-0.08477421052557864,0
3434,-0.007212581318412136,0
3435,-0.050643754739482225,0
3436,-0.033414188276833956,0
3437,-0.011032717559384666,0
3438,-0.029745208901964533,0
3439,0.0402196590009007,0
3440,0.43769984118207994,0
3441,4.101964315663919,0
3442,6.682212793753087,0
3443,-1.2031482198227628,0
3444,-1.2827821064262122,0
3445,1.4509710930852777,0
3446,-0.6572711692531892,0
3447,0.21486113648595945,0
3448,0.06322685769510063,0
3449,0.058838941184562954,0
3450,0.02040137109807466,0
3451,0.0500491683933813,0
3452,0.06170781210696933,0
3453,0.037941949219274955,0
3454,0.02427953032825636,0
3455,0.015329616646677889,0
3456,0.045819725189289645,0
3457,0.02323793039934956,0
3458,0.06463940287241017,0
3459,-0.01674861068216776,0
3460,0.42245690822909365,0
3461,4.06089331621897,0
3462,6.540040151109689,0
3463,-1.218258953476888,0
3464,-1.5163523195399888,0
3465,1.2929180633010051,0
3466,-0.9384965067449101,0
3467,0.23542554166353202,0
3468,-0.04667292459078364,0
3469,-0.022808358539365622,0
3470,0.06938425238475027,0
3471,-0.01995256196369594,0
3472,-0.026160843402801403,0
3473,-0.05551421972531041,0
3474,-0.05869251563231754,0
3475,-0.025798883727760916,0
3476,-0.05539536668144445,0
3477,-0.04147829114004384,0
3478,-0.0715935143822338,0
3479,-0.12460478752740142,0
3480,0.37557602715683525,0
3481,3.997789909986228,0
3482,6.550754748021156,0
3483,-1.2304969995772301,0
3484,-1.391690353225789,0
3485,1.376567537531343,0
3486,-0.89875880363825,0
3487,0.1626038182289184,0
3488,-0.08857620108860594,0
3489,-0.047950972903775604,0
3490,-0.08645544582079567,0
3491,0.0016776698151612507,0
3492,0.01939364830448624,0
3493,-0.036477348781627617,0
3494,-0.04747197940164193,0
3495,-0.014517725706673812,0
3496,-0.09773162142941645,0
3497,-0.008876364890910628,0
3498,-0.0464460124824836,0
3499,0.003000696906526457,0
3500,0.47293068755274453,0
3501,4.091539629458438,0
3502,6.5643697527530245,0
3503,-1.1757479857670525,0
3504,-1.3676454297993073,0
3505,1.4072008205244164,0
3506,-0.7558695407795276,0
3507,0.22408545937138832,0
3508,-0.009495004865569437,0
3509,0.029273846716304168,0
3510,0.0794768116689282,0
3511,0.05355014060908768,0
3512,-0.014493614394157275,0
3513,-0.015694427737717464,0
3514,-0.010060351834927088,0
3515,-0.10116798517091391,0
3516,-0.12214326348857885,0
3517,0.023804363185680806,0
3518,-0.02967794805961628,0
3519,0.007336702933907431,0
3520,0.3781744390235798,0
3521,4.104528734692258,0
3522,6.56565059072103,0
3523,-1.2402643628298036,0
3524,-1.4561191783011322,0
3525,1.3028010795591938,0
3526,-0.7566967470852954,0
3527,0.1194702993558949,0
3528,-0.09328129944167826,0
3529,-0.08435721270506122,0
3530,-0.0029027209926512157,0
3531,-0.04873766433145917,0
3532,-0.021280250570305755,0
3533,-0.14368980349540988,0
3534,-0.11978385269914245,0
3535,-0.009397683657963438,0
3536,-0.0865895794076601,0
3537,-0.042796925641101366,0
3538,-0.027063916878232494,0
3539,-0.012661761025009391,0
3540,0.35323086415531535,0
3541,4.134719278786536,0
3542,6.475509361370933,0
3543,-1.1976596568766178,0
3544,-1.3762400337355365,0
3545,1.3531929534168028,0
3546,-0.8396140848722465,0
3547,0.15628104076300436,0
3548,-0.0800457532243525,0
3549,-0.07642452349337522,0
3550,-0.008345770920298513,0
3551,-0.029163061146086647,0
3552,-0.10071892300590643,0
3553,-0.0018322237482738118,0
3554,-0.06308738300886244,0
3555,-0.1194279046239505,0
3556,-0.06844489256327017,0
3557,0.03947457515262258,0
3558,-0.04894681697703388,0
3559,-0.06613084443005228,0
3560,0.3617553874514088,0
3561,4.1877225631877595,0
3562,6.553672850686198,0
3563,-1.18181067258493,0
3564,-1.4175394486630568,0
3565,1.3992869372389634,0
3566,-0.8437083737312605,0
3567,0.2223083436490836,0
3568,-0.004366613618492676,0
3569,-0.008702176155740822,0
3570,-0.045277316810725346,0
3571,-0.01939625618076745,0
3572,0.024432117722038266,0
3573,-0.030479095537065317,0
3574,-0.048268114661507655,0
3575,-0.10953868989264455,0
3576,-0.1061490394013097,0
3577,0.09982736666650338,0
3578,0.032152927439559956,0
3579,-0.03658587682086089,0
3580,0.45867800215169025,0
3581,4.279457564573562,0
3582,6.620138448750901,0
3583,-1.2672385401142263,0
3584,-1.427449017019548,0
3585,1.4643240280842111,0
3586,-0.7735758080742106,0
3587,0.17932258175564703,0
3588,-0.014551297686794362,0
3589,-0.03407563032138423,0
3590,0.00569079269603111,0
3591,-0.023541084075753223,0
3592,-0.007049399909412401,0
3593,0.013589181387726863,0
3594,0.017774980210898267,0
3595,-0.06033258830830801,0
3596,-0.04179586490200943,0
3597,-0.15230160870921566,0
3598,0.06714531123104547,0
3599,-0.0016138481289254478,0
3600,0.35195756624898633,0
3601,4.1135608610980565,0
3602,6.536161353639761,0
3603,-1.2402480251028793,0
3604,-1.2462699382963052,0
3605,1.3795449425372108,0
3606,-0.882786026697515,0
3607,0.2670763376388623,0
3608,-0.04086144726115282,0
3609,-0.07044546251559525,0
3610,0.02248472450487704,0
3611,0.07541860516985795,0
3612,-0.06352816871106284,0
3613,-0.01091025769610756,0
3614,-0.067741071528821,0
3615,-0.00431460183226165,0
3616,0.01875251819272958,0
3617,-0.008541784188722566,0
3618,0.08706547117268792,0
3619,0.002075250001455825,0
3620,0.4473277415242599,0
3621,4.123854827589761,0
3622,6.570725677473838,0
3623,-1.17553411571897,0
3624,-1.3757433066814133,0
3625,1.3683874208415385,0
3626,-0.7732368824696266,0
3627,0.11458989889321995,0
3628,-0.012745011857288623,0
3629,0.006705990790272398,0
3630,-0.009900216732778817,0
3631,-0.02453874642241148,0
3632,-0.02507654057462046,0
3633,0.0011824361115826913,0
3634,-0.0029301022613446095,0
3635,0.05839177111947445,0
3636,-0.016100478597926005,0
3637,0.05413569863616686,0
3638,0.08745926260265927,0
3639,-0.11386135358404201,0
3640,0.4359242359500842,0
3641,4.268449106699002,0
3642,6.538599131972421,0
3643,-1.167458193082428,0
3644,-1.2643564748356213,0
3645,1.4395975697107208,0
3646,-0.8929563079695991,0
3647,0.2908114776231706,0
3648,-0.0061746430208880175,0
3649,-0.08470274717522847,0
3650,-0.03240627208011987,0
3651,-0.004882302059905093,0
3652,-0.03205876612272256,0
3653,-0.008679607341675957,0
3654,-0.02124684864138797,0
3655,-0.09905880863613568,0
3656,-0.08645954097781719,0
3657,-0.1533365772041791,0
3658,-0.12208596016358172,0
3659,0.07949184152157346,0
3660,0.4466071001917401,0
3661,4.178947582004108,0
3662,6.564860412199596,0
3663,-1.2009692263081777,0
3664,-1.3794471092222058,0
3665,1.358105296751752,0
3666,-0.7469065354819235,0
3667,0.20347485873126878,0
3668,-0.008825238276228895,0
3669,0.001635936449720033,0
3670,-0.05416740851865481,0
3671,-0.007030299339409636,0
3672,-0.09169874550679732,0
3673,-0.051539403464322606,0
3674,-0.050117357997469386,0
3675,-0.06383437704647346,0
3676,-0.0015990513828785038,0
3677,-0.12045991664434573,0
3678,-0.06617900384351622,0
3679,0.0025246815787562,0
3680,0.36263265139833073,0
3681,4.15304939780838,0
3682,6.568079044902257,0
3683,-1.154172768902701,0
3684,-1.3221716411224878,0
3685,1.4997040494753153,0
3686,-0.8274907451670566,0
3687,0.3529276650423373,0
3688,-0.028790258842770578,0
3689,0.015190888298206098,0
3690,0.003993006915371529,0
3691,-0.07367090592220091,0
3692,0.00815327662558963,0
3693,0.04112584063656349,0
3694,0.03444613656621257,0
3695,-0.00959437414118193,0
3696,-0.03755268554479186,0
3697,0.007138775177056082,0
3698,0.02745114759445933,0
3699,-0.06841555129136725,0
3700,0.43673608808212216,0
3701,4.1860360903731015,0
3702,6.564012118292358,0
3703,-1.1966402365818163,0
3704,-1.2916385012657645,0
3705,1.3917529674664972,0
3706,-0.7596167580398135,0
3707,0.2581306428120105,0
3708,-0.05475785520886764,0
3709,-0.03291601361754236,0
3710,0.06552158175402055,0
3711,0.0025911809655692272,0
3712,-0.0004515795909006276,0
3713,0.003750754630391484,0
3714,0.053919442157070084,0
3715,-0.03194204386903528,0
3716,-0.0372323476578003,0
3717,0.006729240261312722,0
3718,-0.018916785171078386,0
3719,-0.022173889071136113,0
3720,0.3848255263767475,0
3721,4.229393102973262,0
3722,6.5495168426131745,0
3723,-1.3259406421183377,0
3724,-1.3267453232924418,0
3725,1.4968990259514083,0
3726,-0.7888741526791767,0
3727,0.22546713969808516,0
3728,-0.09677474949200311,0
3729,-0.06852697844070331,0
3730,-0.05613108382416202,0
3731,0.0038383694802189136,0
3732,-0.05474695690631949,0
3733,-0.031032319368311773,0
3734,-0.03623787913773759,0
3735,0.025952822996520897,0
3736,0.027311588504196075,0
3737,0.07167720508000634,0
3738,-0.03433808870761078,0
3739,-0.049202239682731186,0
3740,0.5118163831401182,0
3741,4.163859530774527,0
3742,6.490212045583609,0
3743,-1.2381358442676018,0
3744,-1.3383433997706906,0
3745,1.4192200902294134,0
3746,-0.7468077675230965,0
3747,0.23249980553227828,0
3748,0.031754902330726496,0
3749,0.00048216084426711686,0
3750,0.01285022708988325,0
3751,-0.11222944257906795,0
3752,-0.04606469027553301,0
3753,0.03368925760054838,0
3754,-0.02466170326206838,0
3755,-0.011336958121771847,0
3756,0.039677017566242145,0
3757,0.04900558016208559,0
3758,0.008282769191438295,0
3759,0.014041146066585766,0
3760,0.5104799422009105,0
3761,4.192544432203704,0
3762,6.467875341516676,0
3763,-1.201025049568346,0
3764,-1.3049737957721481,0
3765,1.4201126879031858,0
3766,-0.6928252627273914,0
3767,0.23490823044225245,0
3768,-0.12615053631998951,0
3769,-0.018859915847603187,0
3770,0.03213164083575379,0
3771,0.03701940102782303,0
3772,0.006211195242829901,0
3773,-0.03929121094180236,0
3774,-0.026498276444342616,0
3775,0.04184527865530003,0
3776,0.0031459377705268105,0
3777,-0.0036588202621026366,0
3778,0.020792899083383068,0
3779,-0.010741398272658067,0
3780,0.43458989853697233,0
3781,4.19205913448843,0
3782,6.541894054502176,0
3783,-1.2017590945792058,0
3784,-1.353278693565275,0
3785,1.3862881812441765,0
3786,-0.7538903829137675,0
3787,0.2164809434412753,0
3788,-0.0672182764211546,0
3789,-0.05755258451494575,0
3790,0.03291887737921796,0
3791,-0.008155952841774264,0
3792,0.0164570616740335,0
3793,-0.041428718344869386,0
3794,0.03933686408229632,0
3795,-0.04257758644882261,0
3796,0.01320561577235393,0
3797,0.018009239443964972,0
3798,-0.01943767218457848,0
3799,-0.0552870653807196,0
3800,0.3750869821518045,0
3801,4.182725425517192,0
3802,6.472347743230282,0
3803,-1.259174398925654,0
3804,-1.2815102752494392,0
3805,1.3617464151319432,0
3806,-0.8673560671550823,0
3807,0.2325455547380026,0
3808,-0.052775300092092296,0
3809,-0.12232767622116991,0
3810,0.05304388072757503,0
3811,-0.03244650969837981,0
3812,-0.048756971641340754,0
3813,-0.03371611767666922,0
3814,-0.04859291675608836,0
3815,0.025376422074958074,0
3816,-0.0838275942314108,0
3817,0.034771063269147126,0
3818,-0.11418407707996864,0
3819,-0.028909040159159502,0
3820,0.37132751620299737,0
3821,4.140337662563863,0
3822,6.511394541963457,0
3823,-1.312366960364599,0
3824,-1.3151882287442265,0
3825,1.438530334874684,0
3826,-0.8300914049480054,0
3827,0.20631383500254435,0
3828,-0.09550346408481196,0
3829,-0.02560597508175702,0
3830,-0.017260064629187902,0
3831,-0.11640294988156061,0
3832,0.02583586885400259,0
3833,0.04282558011632083,0
3834,-0.03582548084755272,0
3835,-0.09452619228587081,0
3836,-0.057111189287904145,0
3837,-0.10112675049667096,0
3838,-0.08753887018671423,0
3839,-0.11347482656979414,0
3840,0.36377911893382303,0
3841,4.161253350458867,0
3842,6.409497812588005,0
3843,-1.3531416695424208,0
3844,-1.3675327733512932,0
3845,1.2601806436866376,0
3846,-0.8716287713565034,0
3847,0.23488163652741068,0
3848,-0.09647929483207547,0
3849,-0.08106084803769721,0
3850,-0.08583283526652627,0
3851,-0.03240427156758412,0
3852,0.028857106691767057,0
3853,0.034008234027487885,0
3854,-0.107224653727249,0
3855,-0.046685427844212896,0
3856,-0.005359054888905708,0
3857,-0.04116759046449046,0
3858,-0.02263399160386579,0
3859,-0.03838827360745345,0
3860,0.3758004815292015,0
3861,4.142870077127632,0
3862,6.423776620347887,0
3863,-1.4576748738546088,0
3864,-1.3355811109636475,0
3865,1.318353556640444,0
3866,-0.8397085798452139,0
3867,0.09396156865255459,0
3868,-0.05394682291894802,0
3869,-0.12177382699475992,0
3870,-0.01403304520795643,0
3871,-0.05429187258830015,0
3872,-0.10284911184163224,0
3873,-0.1318036394083623,0
3874,-0.11437593334048864,0
3875,-0.11042530364720816,0
3876,0.04872915324388462,0
3877,-0.052497035303043435,0
3878,-0.14377743402724955,0
3879,-0.14240721509952586,0
3880,0.34306518602674946,0
3881,4.139764900589163,0
3882,6.370593654566204,0
3883,-1.3883528618573133,0
3884,-1.471866040719005,0
3885,1.2238190852430353,0
3886,-0.9227669717456152,0
3887,0.1251424985177569,0
3888,-0.08080085513022255,0
3889,-0.09053096428796711,0
3890,-0.10100064963181932,0
3891,-0.15390329403106373,0
3892,-0.07106417741722966,0
3893,-0.08360339417862168,0
3894,-0.16538665918966966,0
3895,-0.14943126908073265,0
3896,-0.10746662636066473,0
3897,-0.12442230852925815,0
3898,-0.08094517220938782,0
3899,-0.009140082644683759,0
3900,0.2890174015485162,0
3901,4.038266492429653,0
3902,6.391970004611103,0
3903,-1.4157452378810922,0
3904,-1.3590187363168194,0
3905,1.3197845719896395,0
3906,-0.8822213138534747,0
3907,0.1493225027312511,0
3908,-0.11789679293365259,0
3909,-0.16023380975465615,0
3910,-0.015132869505831904,0
3911,-0.0702610002944405,0
3912,0.037960852860161085,0
3913,-0.03918133063735757,0
3914,-0.011017402008140012,0
3915,-0.15812052354165307,0
3916,-0.12285888653194504,0
3917,-0.15281188776677207,0
3918,-0.10142039849631658,0
3919,-0.10665755284772882,0
3920,0.30720286767996224,0
3921,4.077488179656011,0
3922,6.308061677612385,0
3923,-1.5555548268276476,0
3924,-1.4602352755703316,0
3925,1.1773127806863481,0
3926,-0.9913933197609555,0
3927,-0.006722089972401035,0
3928,-0.22670455815217835,0
3929,-0.15887807135427917,0
3930,-0.12628049653826973,0
3931,-0.14133478112249737,0
3932,-0.2541437433383988,0
3933,-0.231696140441128,0
3934,-0.2837548062281028,0
3935,-0.21848559487021682,0
3936,-0.22906130991204987,0
3937,-0.31105852716732885,0
3938,-0.21203031091934008,0
3939,-0.11059547205380382,0
3940,0.2179318182087318,0
3941,3.9812491747754595,0
3942,6.3004835051468175,0
3943,-1.3703196135636304,0
3944,-1.4532031546544808,0
3945,1.2166811605012056,0
3946,-0.9912196682253331,0
3947,0.010677165353922435,0
3948,-0.2312935293034869,0
3949,-0.12832710707236403,0
3950,-0.15703613834110686,0
3951,-0.150856539865413,0
3952,-0.12616629782715721,0
3953,-0.11618029521116854,0
3954,-0.18379964843774638,0
3955,-0.19902192166969399,0
3956,-0.15322385943709926,0
3957,-0.18712536788981118,0
3958,-0.13085194321832905,0
3959,-0.021542827111589058,0
3960,0.29372339150662957,0
3961,4.038068368268322,0
3962,6.404981045692499,0
3963,-1.399888326971623,0
3964,-1.507674129095275,0
3965,1.1863635115444757,0
3966,-0.89424436864294,0
3967,0.14267081624383407,0
3968,-0.2013833231280353,0
3969,-0.19557622443657144,0
3970,-0.1463746053767358,0
3971,-0.2490161476648004,0
3972,-0.15638040710541123,0
3973,-0.12855694874267198,0
3974,-0.14997059900671902,0
3975,-0.09998270579567478,0
3976,-0.20481686833307197,0
3977,-0.2629343744467718,0
3978,-0.09536942291790476,0
3979,-0.09941356362308817,0
3980,0.31462857063686095,0
3981,4.106907825981317,0
3982,6.374116586162278,0
3983,-1.345244262707918,0
3984,-1.3191452623801887,0
3985,1.3558382027235163,0
3986,-0.8002035384623127,0
3987,0.21241091720292826,0
3988,-0.12682973889391416,0
3989,-0.10234891840422422,0
3990,-0.05453078130724519,0
3991,-0.13046191716876948,0
3992,-0.06843227537661768,0
3993,-0.15007853983985606,0
3994,-0.16869945003878273,0
3995,-0.08991330973559208,0
3996,-0.039725582379555355,0
3997,-0.09099818777765109,0
3998,-0.13969192617305892,0
3999,-0.07163402721345034,0
4000,0.3066487648304467,0
4001,4.089164964635707,0
4002,6.402789121318747,0
4003,-1.5198516409865217,0
4004,-1.335135787205765,0
4005,1.3732007314828876,0
4006,-0.7279833374063724,0
4007,0.22001040581771908,0
4008,-0.04465570123725078,0
4009,-0.07681468196606486,0
4010,-0.024021555828511593,0
4011,-0.07830733821539021,0
4012,-0.10975839299997353,0
4013,-0.07757076052031413,0
4014,-0.029016829282156337,0
4015,0.0078099520057617194,0
4016,-0.0999614617648508,0
4017,-0.010297988376791398,0
4018,-0.11579550552571768,0
4019,-0.10645611554925952,0
4020,0.3091501998129192,0
4021,4.0822968381042,0
4022,6.399340606253725,0
4023,-1.3210319737810818,0
4024,-1.3542630356112901,0
4025,1.22976737853056,0
4026,-0.7714832407999352,0
4027,0.10949547536666758,0
4028,-0.1366607853353468,0
4029,-0.06913420798743206,0
4030,0.08108804191329338,0
4031,-0.020015068252655893,0
4032,0.01181090337275625,0
4033,0.08329782718140659,0
4034,0.006722150856152576,0
4035,-0.0045621802461857375,0
4036,0.08967186413870085,0
4037,0.04929760460448474,0
4038,0.08614701874999514,0
4039,0.03023803186791331,0
4040,0.4729064482440329,0
4041,4.208249995142723,0
4042,6.566343482102808,0
4043,-1.2879635924355912,0
4044,-1.3035561931703175,0
4045,1.4048107413625879,0
4046,-0.8363242659709803,0
4047,0.2116751110956526,0
4048,-0.0636080053368739,0
4049,-0.014517308273626246,0
4050,0.0239634836452247,0
4051,0.04951635268485336,0
4052,0.025559003821667876,0
4053,-0.0006382630444476626,0
4054,0.05141735692700247,0
4055,0.08393257053044845,0
4056,-0.034951318934462544,0
4057,0.031125024973197767,0
4058,0.057852401021487795,0
4059,0.1151823177822166,0
4060,0.5321593978623191,0
4061,4.244480856516683,0
4062,6.556078772237611,0
4063,-1.2238704530063393,0
4064,-1.2077763435554536,0
4065,1.3610497369300616,0
4066,-0.6826006838703125,0
4067,0.3459232997702697,0
4068,0.09311189253542446,0
4069,0.021257239029466444,0
4070,-0.02517138235302359,0
4071,0.07657495402089412,0
4072,0.07331873338461514,0
4073,0.022447516320086347,0
4074,0.08427801611242926,0
4075,-0.004064235075286082,0
4076,0.044151205887826644,0
4077,0.0075455178015618116,0
4078,-0.02113560864516298,0
4079,0.04859759495886998,0
4080,0.48264551392652616,0
4081,4.298685859473502,0
4082,6.551993791681795,0
4083,-1.3607101291602912,0
4084,-1.2408996759108273,0
4085,1.4160291253481845,0
4086,-0.7376478984394672,0
4087,0.2016600901211851,0
4088,0.0006111502735224733,0
4089,0.05597157776911138,0
4090,0.059010190590287774,0
4091,0.05501674408104601,0
4092,0.10562245582460134,0
4093,-0.0030616481121588934,0
4094,-0.000963260766578912,0
4095,0.021968202029084002,0
4096,-0.020014790260830195,0
4097,0.07845301428657381,0
4098,0.07294662587846994,0
4099,0.05014082452612576,0
4100,0.4556179196327329,0
4101,4.44824962804697,0
4102,6.613627559750455,0
4103,-1.179660368746085,0
4104,-1.1909891793620258,0
4105,1.4049903578391871,0
4106,-0.7657513963178433,0
4107,0.3243980212873017,0
4108,0.0611687861274814,0
4109,0.04167331661739075,0
4110,0.04009457804944329,0
4111,0.15630029737670614,0
4112,0.09222370287426764,0
4113,0.14249538077329538,0
4114,0.09353741858323458,0
4115,0.060225512215807964,0
4116,0.05704096454913375,0
4117,0.03318019077460146,0
4118,0.11979215166322899,0
4119,0.0886927531254033,0
4120,0.4211300426565262,0
4121,4.252038309948783,0
4122,6.63681609470637,0
4123,-1.2947655761018715,0
4124,-1.225814738309881,0
4125,1.4029364763852232,0
4126,-0.7540877261007675,0
4127,0.2661533272919766,0
4128,-0.0394679875429698,0
4129,-0.024621559393829158,0
4130,0.0023590688982206356,0
4131,0.08205171615006943,0
4132,-0.06886248185540536,0
4133,0.10786224241419343,0
4134,-0.025665106798668093,0
4135,-0.006263995228352484,0
4136,0.026798209782782023,0
4137,0.05799817902044263,0
4138,0.09023696266241527,0
4139,0.03387240637537929,0
4140,0.4872141411649939,0
4141,4.327492819604304,0
4142,6.526113774215864,0
4143,-1.199799677540835,0
4144,-1.1749705707385807,0
4145,1.3814412468438197,0
4146,-0.7952089445420606,0
4147,0.3470386523327629,0
4148,0.06916795756587395,0
4149,0.032914136503748165,0
4150,0.03532629491050078,0
4151,0.034040140312417894,0
4152,0.011271216393892941,0
4153,0.003211006698401949,0
4154,-0.05326969652495243,0
4155,0.05893144978157791,0
4156,-0.01423882861868135,0
4157,0.18511511607077832,0
4158,0.02965800502428639,0
4159,0.09183193603795903,0
4160,0.47729295690098245,0
4161,4.30377120648669,0
4162,6.46037916119374,0
4163,-1.225748228182924,0
4164,-1.1944986427541617,0
4165,1.413413939165233,0
4166,-0.8565878876405043,0
4167,0.21880814742055968,0
4168,-0.05207615700428275,0
4169,-0.048205296764223415,0
4170,-0.06213846918657831,0
4171,-0.09265183380436184,0
4172,-0.06175118299802225,0
4173,-0.15663421015444118,0
4174,-0.09261122777007699,0
4175,-0.055481922421563315,0
4176,-0.06620790283456748,0
4177,-0.007637239090037211,0
4178,-0.11919925584100599,0
4179,0.012487587943257189,0
4180,0.47045313370122294,0
4181,4.212514252736107,0
4182,6.472779539633316,0
4183,-1.3783305516373874,0
4184,-1.2279844584331425,0
4185,1.3944399938517953,0
4186,-0.7964616092617094,0
4187,0.2520387637191635,0
4188,-0.048996498419667286,0
4189,-0.05678450515650007,0
4190,0.003254821952527423,0
4191,-0.03975591950432756,0
4192,-0.03383530450498893,0
4193,-0.06666979430615658,0
4194,0.04291078280463682,0
4195,0.07734222843118527,0
4196,0.017617826763916815,0
4197,0.008859672330178823,0
4198,-0.003363766451409917,0
4199,-0.04204448239026615,0
4200,0.4269895287859449,0
4201,4.178403266336282,0
4202,6.520374646570767,0
4203,-1.368422191875953,0
4204,-1.2670764792455793,0
4205,1.5014892018558168,0
4206,-0.8123173544229774,0
4207,0.26927765568890283,0
4208,-0.02769903275778436,0
4209,0.056598049364909295,0
4210,0.03681132549361865,0
4211,0.016405908778715072,0
4212,-0.009454339147683878,0
4213,0.01760454702571474,0
4214,0.06377552283733923,0
4215,0.07671950178456205,0
4216,-0.020024625453206303,0
4217,0.008762548544606875,0
4218,0.020200973085464757,0
4219,-0.002519747281198184,0
4220,0.44015712242777094,0
4221,4.245241006421213,0
4222,6.486435449916293,0
4223,-1.3724779797771571,0
4224,-1.2608405159277256,0
4225,1.2944536532558861,0
4226,-0.7357200550404811,0
4227,0.1461228094879382,0
4228,-0.02038017860096839,0
4229,0.09114715481492018,0
4230,-0.01065279347855689,0
4231,0.059167817928694126,0
4232,-0.009878637144753687,0
4233,0.045723068738635186,0
4234,-0.027406745129483247,0
4235,-0.061824676636077026,0
4236,-0.045451993311792435,0
4237,-0.06743951108469912,0
4238,0.04218797847120755,0
4239,-0.030491620728013282,0
4240,0.5263709963685947,0
4241,4.20303895058619,0
4242,6.408759971041836,0
4243,-1.3249365005490037,0
4244,-1.2980053260899709,0
4245,1.2934956590256195,0
4246,-0.7383487321725831,0
4247,0.26229043791672174,0
4248,-0.006219476368513262,0
4249,-0.020625261403427173,0
4250,0.06227097712354934,0
4251,0.03363237399648362,0
4252,-0.055096098902465605,0
4253,0.10803400960985526,0
4254,0.07951777930045882,0
4255,0.07013345273629716,0
4256,0.05007847807015338,0
4257,0.004453550058108158,0
4258,-0.02309091970443522,0
4259,0.09167085460612916,0
4260,0.48100673935964966,0
4261,4.288837155076147,0
4262,6.462606548240677,0
4263,-1.4041403194937325,0
4264,-1.176453883868112,0
4265,1.3141792262252001,0
4266,-0.8626520424157111,0
4267,0.15550654274923936,0
4268,-0.04672311910871652,0
4269,0.04455676949122274,0
4270,-0.06346096265960445,0
4271,-0.13626128719233882,0
4272,-0.025646202661632173,0
4273,0.017434503053295053,0
4274,-0.07292155068581603,0
4275,0.008848645840662354,0
4276,0.013257814957486996,0
4277,-0.000461833971453645,0
4278,0.01007051943310843,0
4279,0.02225126107955206,0
4280,0.4352259278324864,0
4281,4.372582776928154,0
4282,6.492380275680757,0
4283,-1.4614201509021967,0
4284,-1.1768988167068763,0
4285,1.3449760267188429,0
4286,-0.7955705160508076,0
4287,0.1894019181608484,0
4288,-0.08047762941896018,0
4289,-0.07252302818584548,0
4290,0.10456507510956181,0
4291,0.03556356945255559,0
4292,0.04517118089070085,0
4293,-0.04492888536764168,0
4294,-0.049665653626215896,0
4295,0.002109702572827686,0
4296,-0.04261676533566182,0
4297,-0.04555752817798615,0
4298,-0.008594023800823924,0
4299,-0.046643182502935004,0
4300,0.4677907565439644,0
4301,4.359147775623094,0
4302,6.492039979635897,0
4303,-1.3723035281173463,0
4304,-1.2104190797454013,0
4305,1.3874234365535036,0
4306,-0.8217094366457933,0
4307,0.22490581891201333,0
4308,-0.036071706926468064,0
4309,0.06549119415287744,0
4310,0.12529249616536572,0
4311,-0.004104850630864087,0
4312,0.11748716627078695,0
4313,-0.0036899069699598934,0
4314,0.05425307287494498,0
4315,-0.025519712549709306,0
4316,0.019885018640711058,0
4317,0.09207557984877665,0
4318,0.023425057075579857,0
4319,-0.04322205043443,0
4320,0.43405980107063075,0
4321,4.2053598974118716,0
4322,6.379302374009666,0
4323,-1.3207937120801012,0
4324,-1.298042767970421,0
4325,1.3475696302443048,0
4326,-0.7556329087848862,0
4327,0.20137745221556938,0
4328,-0.02581922087040383,0
4329,0.0635740065707494,0
4330,0.1592525169882924,0
4331,0.053751934043770676,0
4332,0.020007852760987172,0
4333,0.027930767646363104,0
4334,0.01540500059700706,0
4335,-0.00041952373554041134,0
4336,0.08106304393753735,0
4337,0.05411272934928406,0
4338,0.04501757710151624,0
4339,0.11630968527017613,0
4340,0.3807286900897283,0
4341,4.354166855942156,0
4342,6.494310094032297,0
4343,-1.4643154206159004,0
4344,-1.1625730670774757,0
4345,1.294795209147644,0
4346,-0.873447499306187,0
4347,0.22191618776567718,0
4348,-0.047016884203944176,0
4349,-0.06527214027859973,0
4350,0.05418979463589794,0
4351,-0.0427482636398677,0
4352,0.0075022742160418335,0
4353,-0.11660514103125444,0
4354,-0.030686711610316348,0
4355,-0.10379787069358976,0
4356,-0.11321766992254076,0
4357,0.0338761361925973,0
4358,-0.06804084101393121,0
4359,-0.06778755996620113,0
4360,0.36927397992296396,0
4361,4.198395786613728,0
4362,6.397520922200493,0
4363,-1.4351268705595819,0
4364,-1.3233746816310297,0
4365,1.3071279305553298,0
4366,-0.9366171571737066,0
4367,0.20654355816658726,0
4368,-0.06760257887633736,0
4369,-0.0693373420111976,0
4370,-0.027838728433889466,0
4371,0.04144746530980127,0
4372,0.04068664986387542,0
4373,0.07879830353409863,0
4374,0.024168405987890846,0
4375,0.025800151085689477,0
4376,-0.010907373927427312,0
4377,-0.014107737805727109,0
4378,-0.021114223414678925,0
4379,0.019497896969650645,0
4380,0.43945723722261115,0
4381,4.298517525551342,0
4382,6.4219954794935346,0
4383,-1.4004708633653322,0
4384,-1.2204700560069803,0
4385,1.2395724829385428,0
4386,-0.82765561433848,0
4387,0.2529627428739814,0
4388,-0.09467702580065471,0
4389,-0.0606083869382597,0
4390,-0.08933903218801605,0
4391,-0.10906398003334994,0
4392,-0.09022624230182244,0
4393,-0.04690109947659668,0
4394,0.023139683115877073,0
4395,-0.005542567940245987,0
4396,-0.056985902681425754,0
4397,-0.12988740663491563,0
4398,-0.05678038050612992,0
4399,-0.03171454623690504,0
4400,0.38849067052104314,0
4401,4.205190195828162,0
4402,6.366903116676319,0
4403,-1.4261023280159726,0
4404,-1.295295576753406,0
4405,1.383665699830394,0
4406,-0.7632226618185922,0
4407,0.3148239597409853,0
4408,0.035913250474881205,0
4409,0.014949361882598211,0
4410,0.008023258607090696,0
4411,0.05108666781872215,0
4412,0.053393731125599524,0
4413,0.0011751883300091248,0
4414,0.008209751552087856,0
4415,0.0494534930964255,0
4416,0.14210017889323284,0
4417,0.01739998284047813,0
4418,0.009523923064187674,0
4419,0.13406485246293456,0
4420,0.4222255773316688,0
4421,4.306792063690304,0
4422,6.471498305614264,0
4423,-1.4743617945720071,0
4424,-1.1705579872660814,0
4425,1.2436822069272078,0
4426,-0.8881821632001765,0
4427,0.1985140439133672,0
4428,-0.1267820564550035,0
4429,-0.11631855055551121,0
4430,-0.04675513976522912,0
4431,0.008219909764695887,0
4432,-0.05999646536942601,0
4433,-0.01338096131068946,0
4434,-0.019874322193186744,0
4435,-0.04831112832102253,0
4436,-0.1303208185814571,0
4437,0.017740191162706698,0
4438,-0.09573366401505964,0
4439,-0.1348811440310207,0
4440,0.4304672247114079,0
4441,4.28545467056101,0
4442,6.330872070985072,0
4443,-1.5000153306342072,0
4444,-1.2822192163819701,0
4445,1.2473503993468582,0
4446,-0.8920191868217845,0
4447,0.21108558661575522,0
4448,-0.189759435120635,0
4449,-0.03152592203115542,0
4450,-0.11150740737502401,0
4451,-0.11542486919547063,0
4452,-0.0652508537721807,0
4453,-0.0017326719197344187,0
