timestamp,value-0,is_anomaly
0,0.18617581231183775,0.0
1,3.548494585839027,0.0
2,6.918401133637863,0.0
3,-0.31496814320621414,0.0
4,-2.055496039696727,0.0
5,1.588514762451719,0.0
6,-0.6970045352800001,0.0
7,0.18167621753670993,0.0
8,0.10936646349873909,0.0
9,-0.0800962414062322,0.0
10,0.027827644238748693,0.0
11,0.0825107866837473,0.0
12,-0.014026867267898271,0.0
13,0.06816395667563976,0.0
14,0.06549981716939351,0.0
15,-0.036537948040408524,0.0
16,0.013841635998272352,0.0
17,0.09024004333736804,0.0
18,0.070967711371066,0.0
19,0.055388602517716407,0.0
20,0.21700502361933238,0.0
21,3.468395457246392,0.0
22,6.837141216175961,0.0
23,-0.3177264931795325,0.0
24,-2.0311869049628175,0.0
25,1.6355187720194546,0.0
26,-0.7350087891575527,0.0
27,0.1208671947381478,0.0
28,0.039004265037120164,0.0
29,0.02743885853220205,0.0
30,0.15311081356369255,0.0
31,0.027199207105355554,0.0
32,0.07898375972977995,0.0
33,-0.017717643801341804,0.0
34,0.10487307216007469,0.0
35,-0.030962417478434773,0.0
36,0.05344838778353618,0.0
37,-0.0647983934016384,0.0
38,0.04286917471150303,0.0
39,0.09944961151227387,0.0
40,0.2667721944027182,0.0
41,3.492959796791621,0.0
42,6.858170808243084,0.0
43,-0.28841429642239647,0.0
44,-2.018961550407986,0.0
45,1.4210120115087175,0.0
46,-0.7490695701640375,0.0
47,0.1478866240712108,0.0
48,0.005884087957550398,0.0
49,-0.08413737732242371,0.0
50,-0.01757038342425787,0.0
51,-0.08279704208406176,0.0
52,-0.058147647713464506,0.0
53,-0.07435775544428262,0.0
54,-0.11590399432330706,0.0
55,-0.014409962960471,0.0
56,-0.021137911361640817,0.0
57,-0.024048834026101227,0.0
58,0.07749641098899197,0.0
59,-0.034212272492609254,0.0
60,0.19543328938972793,0.0
61,3.458847246203288,0.0
62,6.8460627630427044,0.0
63,-0.32080491831217606,0.0
64,-2.0027677886567266,0.0
65,1.4980579842997401,0.0
66,-0.6492288974351663,0.0
67,0.09578243069365325,0.0
68,-0.014196647220776236,0.0
69,-0.16733115089128514,0.0
70,-0.018976364332159736,0.0
71,-0.020452730115537852,0.0
72,-0.18852520942409223,0.0
73,-0.022027130321671903,0.0
74,0.07864507523152359,0.0
75,-0.1317143443414704,0.0
76,-0.08368361266622013,0.0
77,-0.10151118773483297,0.0
78,-0.1403320481980895,0.0
79,-0.0335181820363898,0.0
80,0.24406669256075056,0.0
81,3.4178451265753647,0.0
82,6.962332844041236,0.0
83,-0.3919203959159093,0.0
84,-1.9986877207890739,0.0
85,1.5302348244417392,0.0
86,-0.8268017022687426,0.0
87,0.03537706673687118,0.0
88,0.08131309247335333,0.0
89,-0.07659658007239803,0.0
90,0.0650516103388753,0.0
91,-0.04867332656389631,0.0
92,-0.03380250743098861,0.0
93,-0.05429028754820035,0.0
94,0.014206107470021417,0.0
95,0.06963783864913961,0.0
96,-0.03877533347487135,0.0
97,-0.11993213132287645,0.0
98,-0.05334971384586212,0.0
99,-0.10188814596524562,0.0
100,0.21880867001558135,0.0
101,3.465587278513283,0.0
102,6.864610815552824,0.0
103,-0.2635946363959989,0.0
104,-2.077817420203473,0.0
105,1.524974537201576,0.0
106,-0.8251533559740082,0.0
107,-0.042464066326970085,0.0
108,-0.09699645303227755,0.0
109,-0.12828051017647404,0.0
110,0.004850508420525146,0.0
111,-0.08300796545089942,0.0
112,-0.09120176368155197,0.0
113,-0.11924187845417479,0.0
114,-0.15558552125246844,0.0
115,-0.13649865498122543,0.0
116,-0.09807040318520929,0.0
117,-0.03142852741965739,0.0
118,0.003910062560037557,0.0
119,-0.07106708697329227,0.0
120,0.19109009356413487,0.0
121,3.5816910079326156,0.0
122,6.81836081017787,0.0
123,-0.34746102393271927,0.0
124,-1.9929247001788164,0.0
125,1.4567089130406172,0.0
126,-0.7016953094609505,0.0
127,0.10945101618669634,0.0
128,0.04218823521368771,0.0
129,-0.08362892780867202,0.0
130,0.06552315087775008,0.0
131,-0.0893657609348307,0.0
132,-0.03478823799206973,0.0
133,-0.11299377894967061,0.0
134,-0.00388343339992267,0.0
135,-0.022172477110698717,0.0
136,0.005633524560375185,0.0
137,-0.06762216925674235,0.0
138,-0.09739111524470698,0.0
139,-0.036082001044565604,0.0
140,0.25230081219688494,0.0
141,3.474620058913504,0.0
142,6.770350645160143,0.0
143,-0.25191057862260846,0.0
144,-1.9507587233501114,0.0
145,1.5560991312001768,0.0
146,-0.8508779585387714,0.0
147,0.09701989501580383,0.0
148,-0.05699860295125857,0.0
149,-0.04775982957156885,0.0
150,-0.07465563289452366,0.0
151,-0.032257829154190135,0.0
152,-0.007685363669959984,0.0
153,-0.09461033288748216,0.0
154,-0.0015058856903433521,0.0
155,0.015804531591197463,0.0
156,-0.038558980412404235,0.0
157,-0.0583280372426187,0.0
158,-0.05232416962746792,0.0
159,-0.04151600154585175,0.0
160,0.2883765118051377,0.0
161,3.5932301446231056,0.0
162,6.8691031973506025,0.0
163,-0.451447372297879,0.0
164,-1.976912845170023,0.0
165,1.6022277383502037,0.0
166,-0.7839686803006425,0.0
167,0.14141121043900334,0.0
168,-0.02152229034318798,0.0
169,-0.07700436140089088,0.0
170,0.012387870183716454,0.0
171,-0.00018301587545800635,0.0
172,-0.018426327437728717,0.0
173,-0.02324310464275053,0.0
174,-0.02165936730095456,0.0
175,0.056470221213464844,0.0
176,-0.015385087503732544,0.0
177,-0.012813741978189713,0.0
178,0.019725142148771493,0.0
179,-0.02124421334319196,0.0
180,0.29292037232538043,0.0
181,3.4879344899198994,0.0
182,6.889210975886157,0.0
183,-0.2931209662169811,0.0
184,-1.9818935710163164,0.0
185,1.6295470962096337,0.0
186,-0.7206130756738282,0.0
187,0.10605541366964047,0.0
188,0.05492246966252709,0.0
189,-0.04195158552783985,0.0
190,-0.016328368283760195,0.0
191,-0.023622079714409935,0.0
192,-0.05279292328899504,0.0
193,-0.016505568385697278,0.0
194,0.04007324838125561,0.0
195,0.01655449082127012,0.0
196,-0.046294876303100765,0.0
197,-0.12100676555699293,0.0
198,-0.06688228107553047,0.0
199,-0.05360310347819794,0.0
200,0.260222380256004,0.0
201,3.5212367772939093,0.0
202,6.889351494710495,0.0
203,-0.25439434929014454,0.0
204,-1.9878830776450638,0.0
205,1.5529676289699956,0.0
206,-0.7482728985461077,0.0
207,0.13202525019135336,0.0
208,-0.0018527263628101837,0.0
209,-0.081769484822811,0.0
210,0.07974957892857816,0.0
211,-0.0245086856321644,0.0
212,0.04126369610259866,0.0
213,-0.010149436779317907,0.0
214,0.07676800991410654,0.0
215,-0.05361306824796142,0.0
216,0.006820625473809731,0.0
217,-0.08318026243936516,0.0
218,-0.026286760716656893,0.0
219,-0.016299031767938593,0.0
220,0.25958457467986124,0.0
221,3.501454320472971,0.0
222,6.8710172660261435,0.0
223,-0.24454083192104417,0.0
224,-1.8884945500886026,0.0
225,1.6049650855601842,0.0
226,-0.7130610940312381,0.0
227,0.08659335610526538,0.0
228,0.10876543557742806,0.0
229,-0.01115479453526487,0.0
230,0.08428821380755122,0.0
231,-0.025637466457958162,0.0
232,0.09861666053727733,0.0
233,-0.01662486280373614,0.0
234,0.019521989777500116,0.0
235,0.06417533874243905,0.0
236,-0.013082495745177988,0.0
237,-0.006962247607280873,0.0
238,-0.0347551997622433,0.0
239,-0.03243031397909114,0.0
240,0.2807672018303829,0.0
241,3.5215251159800047,0.0
242,6.9663016501543265,0.0
243,-0.27960349293268544,0.0
244,-1.9311428359356961,0.0
245,1.5586469505741711,0.0
246,-0.7374017759832157,0.0
247,0.1877248036710031,0.0
248,-0.01814985348711369,0.0
249,0.06674038653003356,0.0
250,0.09603794178657811,0.0
251,0.03582366050039467,0.0
252,0.07425570847562935,0.0
253,0.0031649259066008906,0.0
254,0.046364177683553616,0.0
255,0.014395296976357948,0.0
256,0.021459868684911634,0.0
257,0.10748114942499445,0.0
258,0.08640504932001061,0.0
259,0.01824489052113607,0.0
260,0.35936921233490837,0.0
261,3.577181424801228,0.0
262,6.842814857637887,0.0
263,-0.291375317214999,0.0
264,-1.839923812299672,0.0
265,1.6156467538236094,0.0
266,-0.7024781465200297,0.0
267,0.2200781833504809,0.0
268,0.07474162598882451,0.0
269,0.00016752148848909673,0.0
270,0.025677141691394678,0.0
271,-0.02159465264437775,0.0
272,0.039256293938759804,0.0
273,0.10577369728041702,0.0
274,0.022876758526555737,0.0
275,-0.13751212179021907,0.0
276,0.031835664837551715,0.0
277,-0.002745574252746366,0.0
278,0.002942041608508479,0.0
279,0.024966294200730474,0.0
280,0.335418233410785,0.0
281,3.5922706707587913,0.0
282,6.874988894742061,0.0
283,-0.25569656217313275,0.0
284,-1.8718118603740739,0.0
285,1.597126714903081,0.0
286,-0.5304665992401932,0.0
287,0.265417372280432,0.0
288,0.0968780444329192,0.0
289,0.09592822636562846,0.0
290,0.17291756280763482,0.0
291,0.134937104799503,0.0
292,0.17344745706911788,0.0
293,0.15592736890560835,0.0
294,0.06878487423024142,0.0
295,0.10089694268277802,0.0
296,0.18446036952308026,0.0
297,0.14185341055067852,0.0
298,0.1014218732601732,0.0
299,0.06519269714080755,0.0
300,0.25905511657560254,0.0
301,3.6117685038408194,0.0
302,6.819561166692462,0.0
303,-0.33363668476874453,0.0
304,-1.8839936662422263,0.0
305,1.545693874180791,0.0
306,-0.7124365695182281,0.0
307,0.09303262874853327,0.0
308,0.026934049251984823,0.0
309,-0.0448510801702293,0.0
310,0.028882299475712844,0.0
311,0.027593574180531145,0.0
312,0.05593129820692623,0.0
313,0.03205467204210101,0.0
314,0.0069170325554306356,0.0
315,0.044746817991281614,0.0
316,0.03904443663569482,0.0
317,-0.025391027442088494,0.0
318,0.1498067972616226,0.0
319,0.046044877262145185,0.0
320,0.4213633228441984,0.0
321,3.627013245269628,0.0
322,6.9363470098492925,0.0
323,-0.3088107452734387,0.0
324,-1.7760254478212814,0.0
325,1.6407414937349736,0.0
326,-0.6386538908871577,0.0
327,0.22829952768758874,0.0
328,0.10156947383804117,0.0
329,0.005223694911683563,0.0
330,0.051695003341671264,0.0
331,0.0746191825753304,0.0
332,0.03358116266164644,0.0
333,0.19129310607424246,0.0
334,-0.07979153438618346,0.0
335,0.0810202543996672,0.0
336,0.10682273463354233,0.0
337,0.11102074102926573,0.0
338,0.008085018010352496,0.0
339,0.015990364380114447,0.0
340,0.37692997726031446,0.0
341,3.582368803549685,0.0
342,6.897478600149606,0.0
343,-0.30229080479379267,0.0
344,-1.9030031656396136,0.0
345,1.642860151121993,0.0
346,-0.6896716026405959,0.0
347,0.24649285439366594,0.0
348,0.11672402210369716,0.0
349,-0.020297011678773666,0.0
350,0.06826986527909117,0.0
351,0.053557555984362404,0.0
352,0.028628922318885128,0.0
353,0.13001497969988335,0.0
354,0.008394434332469468,0.0
355,0.16251469542155839,0.0
356,0.10973690979741016,0.0
357,0.09388300378979962,0.0
358,0.08397106467698898,0.0
359,0.09505452017429643,0.0
360,0.3550901391708002,0.0
361,3.6123996499602824,0.0
362,7.012153691432908,0.0
363,-0.27663295174451014,0.0
364,-1.8686299468891179,0.0
365,1.577610738714441,0.0
366,-0.6029453026095483,0.0
367,0.13225475245203738,0.0
368,0.09006901451357811,0.0
369,0.05833731740640587,0.0
370,0.018302576143955127,0.0
371,-0.05894508824826199,0.0
372,0.0002063650973606907,0.0
373,-0.016261735851800206,0.0
374,0.10487744875463079,0.0
375,-0.0313569191336752,0.0
376,0.014377867842329056,0.0
377,-0.011502234343421465,0.0
378,-0.09678280661794539,0.0
379,0.001532508445619848,0.0
380,0.3592383838728662,0.0
381,3.597630320725242,0.0
382,6.820202858889691,0.0
383,-0.33928450728500337,0.0
384,-1.8655612816276412,0.0
385,1.5659187921830018,0.0
386,-0.6567665926223197,0.0
387,0.1317463299204093,0.0
388,-0.03375704924386138,0.0
389,-0.05092317139562799,0.0
390,0.004022063691679675,0.0
391,0.0777689095367566,0.0
392,0.05681424643346815,0.0
393,-0.09165875563834526,0.0
394,0.0022680608705213825,0.0
395,-0.009668230974836376,0.0
396,-0.021882848624089287,0.0
397,-0.01244918035547425,0.0
398,0.028385373525572216,0.0
399,0.03371409665326126,0.0
400,0.2962096506122829,0.0
401,3.60370994065637,0.0
402,6.748649972907318,0.0
403,-0.3607390621796048,0.0
404,-1.9154093178302796,0.0
405,1.5293196854316689,0.0
406,-0.7780985611857675,0.0
407,0.07006190636291598,0.0
408,0.05862418652400071,0.0
409,-0.08648151587989165,0.0
410,0.034750771547607154,0.0
411,-0.008877847264369906,0.0
412,0.0164111780165968,0.0
413,0.05667118054952626,0.0
414,0.013383604179562726,0.0
415,-0.05901088232382,0.0
416,-0.049805837517440665,0.0
417,0.026975693893982557,0.0
418,-0.04560291581189875,0.0
419,-0.0517147168978036,0.0
420,0.2668353387071865,0.0
421,3.589561264013724,0.0
422,6.839994695598428,0.0
423,-0.4338695664590301,0.0
424,-1.9699599466459476,0.0
425,1.4971321342872996,0.0
426,-0.7766601758686229,0.0
427,0.1460756057731683,0.0
428,0.051969152165464515,0.0
429,-0.0009187022742568607,0.0
430,0.05498862888200089,0.0
431,0.02965320900933273,0.0
432,0.07129111317774588,0.0
433,0.11874859659252394,0.0
434,-0.05912704137251066,0.0
435,0.04233153419114086,0.0
436,0.013893425086679526,0.0
437,0.04142087474293251,0.0
438,0.04426541032653421,0.0
439,0.10851773723051841,0.0
440,0.27088032884816177,0.0
441,3.533000825146815,0.0
442,6.9234113879043315,0.0
443,-0.3958372098123705,0.0
444,-1.9157122581116548,0.0
445,1.5177960691906183,0.0
446,-0.7503542904322706,0.0
447,0.12586866099546107,0.0
448,0.023444330939197212,0.0
449,-0.03556254662991028,0.0
450,-0.03026845270117799,0.0
451,-0.0737565555969953,0.0
452,-0.02170468658778339,0.0
453,-0.11805371051944197,0.0
454,-0.01891043091332395,0.0
455,0.02482784188366409,0.0
456,0.0002021322027633797,0.0
457,0.006750692553465219,0.0
458,0.009900961426817876,0.0
459,0.03956999227782288,0.0
460,0.3177695219232258,0.0
461,3.7174331502983304,0.0
462,6.978263352402523,0.0
463,-0.300197466533542,0.0
464,-1.8770791968881968,0.0
465,1.5607726959694563,0.0
466,-0.7020297984731056,0.0
467,0.16379317791290482,0.0
468,0.13549242825893168,0.0
469,-0.013373771004984318,0.0
470,0.020907750090820857,0.0
471,-0.08026850510524086,0.0
472,-0.028020325802806105,0.0
473,-0.07050380081899146,0.0
474,0.0009123901078632174,0.0
475,-0.005727369197793932,0.0
476,-0.023923611056907042,0.0
477,0.02679225746633824,0.0
478,0.003305365999340552,0.0
479,0.09316333512985647,0.0
480,0.29102355529594054,0.0
481,3.571803719102947,0.0
482,6.91244640714108,0.0
483,-0.304957856205987,0.0
484,-1.9132536393351482,0.0
485,1.596131536682563,0.0
486,-0.7498318492609706,0.0
487,0.29929407620355364,0.0
488,0.10597394430731699,0.0
489,0.0442939734528004,0.0
490,0.047345730901767136,0.0
491,0.14184554846242559,0.0
492,0.12546561765051484,0.0
493,0.018574222247227105,0.0
494,0.03307536726527384,0.0
495,0.056160482062899794,0.0
496,0.04468484444960943,0.0
497,0.10116370940796537,0.0
498,-0.021508676249005952,0.0
499,0.0017232328079199934,0.0
500,0.21119679230631316,0.0
501,3.624168222082821,0.0
502,6.888461080015057,0.0
503,-0.348448806715955,0.0
504,-1.8232070718301394,0.0
505,1.581642014298001,0.0
506,-0.6752045234348524,0.0
507,0.1898734453754528,0.0
508,0.01680985492096286,0.0
509,0.06053230961523089,0.0
510,0.055568907983296306,0.0
511,0.04422186458374399,0.0
512,-0.012120181873126516,0.0
513,0.011860875485203412,0.0
514,0.18198320241405205,0.0
515,0.04407418225593992,0.0
516,-0.042872173519624364,0.0
517,-0.010280022866071041,0.0
518,-0.036547940541092075,0.0
519,-0.018780363817487003,0.0
520,0.28430798633517274,0.0
521,3.557917424755618,0.0
522,6.781285562076521,0.0
523,-0.36077504011902667,0.0
524,-1.8417516868973554,0.0
525,1.5823150132173283,0.0
526,-0.6831254175243735,0.0
527,0.18054702270861087,0.0
528,0.06530165313487009,0.0
529,0.01749732490113519,0.0
530,0.07298011454330502,0.0
531,0.1626258664038817,0.0
532,0.06215842233151135,0.0
533,0.02290750296696044,0.0
534,-0.0522364260127926,0.0
535,0.01040051602762362,0.0
536,0.06234403351307592,0.0
537,0.03277161195134526,0.0
538,0.03623687844267842,0.0
539,-0.04408101115279052,0.0
540,0.36519371846898374,0.0
541,3.5993092776582385,0.0
542,7.0757902920956175,0.0
543,-0.37643152443036343,0.0
544,-1.8942103494945202,0.0
545,1.5487497184734833,0.0
546,-0.7064857089938232,0.0
547,0.18807821359324753,0.0
548,0.12684679276317354,0.0
549,0.021386831247848483,0.0
550,0.1439567713585974,0.0
551,0.07437311912052388,0.0
552,0.04388322525952766,0.0
553,-0.0860841026922207,0.0
554,0.06637579744629848,0.0
555,0.06399387273036639,0.0
556,0.1460613921217496,0.0
557,0.01661861441988799,0.0
558,-0.027428810337059344,0.0
559,-0.012010982841462374,0.0
560,0.3301627305479623,0.0
561,3.579749933856614,0.0
562,6.770597953690548,0.0
563,-0.3219096841688827,0.0
564,-1.9546422392114937,0.0
565,1.525554718568147,0.0
566,-0.6155797905474811,0.0
567,0.0899464906646455,0.0
568,0.050516661955685854,0.0
569,-0.027399408446052625,0.0
570,0.0527192499643445,0.0
571,0.05554585419999024,0.0
572,0.01816638803375761,0.0
573,0.004634085068229566,0.0
574,-0.09384370970316268,0.0
575,-0.09831125572164935,0.0
576,0.021934560283439843,0.0
577,0.049560357837964114,0.0
578,-0.02496837709563209,0.0
579,-0.0638666871640888,0.0
580,0.2514954693488513,0.0
581,3.578955455915952,0.0
582,6.747997243667775,0.0
583,-0.4232757764375111,0.0
584,-1.9307138148694607,0.0
585,1.4871923650099883,0.0
586,-0.6866097117066613,0.0
587,0.2191737719771964,0.0
588,-0.011304811256074777,0.0
589,0.009030389425889282,0.0
590,0.02142829748834951,0.0
591,-0.03486182968642107,0.0
592,0.05372615361823758,0.0
593,-0.000616300051820447,0.0
594,-0.017469064023761645,0.0
595,-0.1070921119931689,0.0
596,3.1376544915721546e-05,0.0
597,0.04970276442263326,0.0
598,0.11485226436295792,0.0
599,-0.009762956554866795,0.0
600,0.3136503940407702,0.0
601,3.685732823129974,0.0
602,6.904752938734389,0.0
603,-0.39603187713896976,0.0
604,-1.8586496812657216,0.0
605,1.5281309970460333,0.0
606,-0.7422824021691958,0.0
607,0.18796460988869398,0.0
608,0.05870169020303162,0.0
609,-0.05177438403346949,0.0
610,0.054250379200086164,0.0
611,0.0117899018976837,0.0
612,0.10438319250286568,0.0
613,0.1430577622878678,0.0
614,0.12081633972999606,0.0
615,0.07288915035462892,0.0
616,0.17336260836608103,0.0
617,0.0579161001775044,0.0
618,0.17499450843238648,0.0
619,0.1590613435235157,0.0
620,0.33649131794216647,0.0
621,3.7182167319063155,0.0
622,6.891144216648952,0.0
623,-0.3390549907674677,0.0
624,-1.8936204045814986,0.0
625,1.6163685092163627,0.0
626,-0.7966548630905044,0.0
627,0.14405440595016997,0.0
628,-0.03599094912369227,0.0
629,-0.06384847101084573,0.0
630,-0.02802113584305132,0.0
631,-0.048348237199916495,0.0
632,-0.01811573806541785,0.0
633,-0.12147614570528956,0.0
634,-0.05884994837997558,0.0
635,-0.12199114593152464,0.0
636,-0.09817970390535029,0.0
637,-0.09044263589747144,0.0
638,-0.041887373098294794,0.0
639,-0.02167539437930952,0.0
640,0.32093844849710396,0.0
641,3.6429115164678953,0.0
642,6.89316805633104,0.0
643,-0.43778970270251466,0.0
644,-1.8540856453458652,0.0
645,1.5301727229814537,0.0
646,-0.7192618537776833,0.0
647,0.12939066631762006,0.0
648,0.0004714326798752333,0.0
649,-0.060227343900942476,0.0
650,0.018872979321278422,0.0
651,-0.18474554485113445,0.0
652,0.015171289785261569,0.0
653,-0.014417823456947303,0.0
654,0.017202307929610965,0.0
655,-0.02980732081109456,0.0
656,-0.021220121085267333,0.0
657,-0.002117780363086578,0.0
658,-0.029448126087505938,0.0
659,-0.007082501667395767,0.0
660,0.31763696974749506,0.0
661,3.643228235423773,0.0
662,6.863862500008025,0.0
663,-0.3922528817930193,0.0
664,-1.945500271398919,0.0
665,1.5175431182687449,0.0
666,-0.8114257395863764,0.0
667,0.07559415898616137,0.0
668,0.07417599601813954,0.0
669,-0.06213741373173266,0.0
670,-0.03128547468932968,0.0
671,0.043257486909067076,0.0
672,0.09504588473185521,0.0
673,-0.030132914963826505,0.0
674,-0.040570564139143936,0.0
675,-0.002767842817166662,0.0
676,-0.04188093515867976,0.0
677,-0.020662123759837697,0.0
678,-0.03434276690959994,0.0
679,-0.11224475051026506,0.0
680,0.3215695933911702,0.0
681,3.597026905843077,0.0
682,6.794196050533993,0.0
683,-0.44859597110072674,0.0
684,-1.9047255799696068,0.0
685,1.4291478682260341,0.0
686,-0.7523716661218496,0.0
687,0.14450288839057207,0.0
688,-0.06270281472232846,0.0
689,-0.0956853231865698,0.0
690,0.013218020896016505,0.0
691,0.06727173475757771,0.0
692,0.002175406319843161,0.0
693,0.09012001358849597,0.0
694,0.017437668911268363,0.0
695,0.01725786028086336,0.0
696,0.09074827315561294,0.0
697,0.005084053570416839,0.0
698,-0.0317328910394578,0.0
699,0.09390441622070192,0.0
700,0.30944099973276046,0.0
701,3.6621671414925414,0.0
702,6.828766002481608,0.0
703,-0.41106239727663124,0.0
704,-1.7720363358983195,0.0
705,1.5338360173476708,0.0
706,-0.7655997503160233,0.0
707,0.07432174698941083,0.0
708,-0.013151820128364109,0.0
709,-0.07051846898635689,0.0
710,0.010965735042048768,0.0
711,-0.0064737533194712624,0.0
712,0.008659826010809668,0.0
713,0.10551565330798712,0.0
714,0.028394588499589084,0.0
715,-0.005933076812439861,0.0
716,0.03860227842556643,0.0
717,0.03133324538697303,0.0
718,0.044510752317519595,0.0
719,0.020544834359658322,0.0
720,0.3536377960929069,0.0
721,3.6602150450711592,0.0
722,6.903375717538542,0.0
723,-0.39401780163063815,0.0
724,-1.8004465425687957,0.0
725,1.4244138673230897,0.0
726,-0.6347306852771015,0.0
727,0.07101349757304086,0.0
728,0.018521736018923214,0.0
729,-0.008007466904365282,0.0
730,-0.07221271487302368,0.0
731,-0.05965680294915186,0.0
732,-0.048622481515055355,0.0
733,0.046342638260794836,0.0
734,-0.00659754492263671,0.0
735,0.00985447449009473,0.0
736,0.06222403155824352,0.0
737,0.07739404457734278,0.0
738,0.036880455414391534,0.0
739,0.10104880602985716,0.0
740,0.2920977817634428,0.0
741,3.616889316772571,0.0
742,6.879459267034073,0.0
743,-0.35506092260165945,0.0
744,-1.8132604435491089,0.0
745,1.6051219972793866,0.0
746,-0.7782663761298158,0.0
747,0.20238025869125595,0.0
748,0.12344503474474103,0.0
749,0.03211333467077695,0.0
750,0.07877291011351648,0.0
751,-0.009378643408995501,0.0
752,0.05787110258953892,0.0
753,-0.030845566542358368,0.0
754,0.052473153255239054,0.0
755,0.01827378649254987,0.0
756,0.001645600319517924,0.0
757,0.07033710645900196,0.0
758,0.0213968424391265,0.0
759,0.08545981236165881,0.0
760,0.24560202414571536,0.0
761,3.689312139891123,0.0
762,6.839393373894014,0.0
763,-0.40913655293432755,0.0
764,-1.8623274578533011,0.0
765,1.5914615870604938,0.0
766,-0.639665475304992,0.0
767,0.21466861384531066,0.0
768,-0.001498418669033691,0.0
769,-0.028559944367235197,0.0
770,0.08361325489759923,0.0
771,0.1846090600074045,0.0
772,0.0255071865406002,0.0
773,0.07786744250781943,0.0
774,0.05244347171981546,0.0
775,0.01968758912390784,0.0
776,0.077424875810799,0.0
777,0.006345967570086056,0.0
778,-0.030775915135365713,0.0
779,0.12488214895401384,0.0
780,0.3867598675017174,0.0
781,3.6551741125303088,0.0
782,6.9114527044194105,0.0
783,-0.37928970206681883,0.0
784,-1.802659440552237,0.0
785,1.5571325091944384,0.0
786,-0.7065834142224352,0.0
787,0.24243621992729913,0.0
788,0.0018018776827110616,0.0
789,0.048159605173145416,0.0
790,0.04035821901188609,0.0
791,0.03500973257980666,0.0
792,0.05867674083825877,0.0
793,0.024196401038088143,0.0
794,0.06375684136057702,0.0
795,0.06845437093334177,0.0
796,0.025662673883138816,0.0
797,0.05575819602755676,0.0
798,-0.0032307615168460507,0.0
799,0.08786980860260481,0.0
800,0.35646200276352896,0.0
801,3.6145335739814692,0.0
802,6.852881539470535,0.0
803,-0.42646583952319267,0.0
804,-1.7426514618450064,0.0
805,1.5506837821488788,0.0
806,-0.6366765081556426,0.0
807,0.21450684693290112,0.0
808,0.010744421471522311,0.0
809,0.05065750567920436,0.0
810,0.11362084908157183,0.0
811,-0.09136576984409986,0.0
812,0.0757805352961164,0.0
813,0.07054907843508326,0.0
814,0.11489134768790732,0.0
815,-0.044089486432415226,0.0
816,0.03597877434972048,0.0
817,0.01648264629122901,0.0
818,0.04069058418070342,0.0
819,0.046862327359259125,0.0
820,0.3743431168057768,0.0
821,3.7536512326476568,0.0
822,6.919492365411627,0.0
823,-0.3884651114686612,0.0
824,-1.8631322298551918,0.0
825,1.6256971200895296,0.0
826,-0.7049885546233059,0.0
827,0.2687607143802943,0.0
828,0.08653205361904931,0.0
829,0.014753736235397278,0.0
830,0.03830602940739877,0.0
831,0.06294378519625878,0.0
832,0.08551229807231578,0.0
833,0.11057111099882175,0.0
834,0.021382360352364946,0.0
835,0.014817023252488216,0.0
836,0.05066992341780345,0.0
837,0.03542571226782946,0.0
838,-0.003044186367896634,0.0
839,-0.056112117932377165,0.0
840,0.27982149437763437,0.0
841,3.6899257238281606,0.0
842,6.865338407509428,0.0
843,-0.46768993167117173,0.0
844,-1.7978743313117282,0.0
845,1.554822963870745,0.0
846,-0.6828203464179339,0.0
847,0.1507234165575371,0.0
848,-0.005883989185306485,0.0
849,-0.0735435595908325,0.0
850,-0.006395750596620148,0.0
851,0.10293224670454429,0.0
852,0.025199993556916205,0.0
853,0.04751752069561358,0.0
854,0.06630463448290881,0.0
855,0.007257742331253959,0.0
856,0.01405281534436685,0.0
857,0.10053245844153097,0.0
858,0.06032061350476357,0.0
859,0.10631246933035446,0.0
860,0.40416823351233433,0.0
861,3.750946239348999,0.0
862,6.890716168874127,0.0
863,-0.48921858092439025,0.0
864,-1.6708444619120884,0.0
865,1.5577493381452998,0.0
866,-0.5968822488995181,0.0
867,0.1178328197044915,0.0
868,-0.020905514421928312,0.0
869,0.05608231399584523,0.0
870,0.02888786522430651,0.0
871,0.0822208463760768,0.0
872,0.011898351090406847,0.0
873,0.10698800917937397,0.0
874,0.061206259418724346,0.0
875,0.04727405686215282,0.0
876,-0.010824900839212533,0.0
877,0.012339631190940673,0.0
878,-0.029372111144626994,0.0
879,0.0640441893707612,0.0
880,0.28473455732759234,0.0
881,3.6831186001242164,0.0
882,6.810595757680405,0.0
883,-0.4847203320478197,0.0
884,-1.857934881367063,0.0
885,1.534223156102554,0.0
886,-0.8076435567092426,0.0
887,0.08390858018643665,0.0
888,-0.06058148125654529,0.0
889,-0.03521587191154384,0.0
890,0.020915639105914537,0.0
891,0.015677868535813204,0.0
892,-0.09231800090961309,0.0
893,-0.025026572589988083,0.0
894,-0.015972078759138607,0.0
895,-0.09138406331674626,0.0
896,0.007866267644443356,0.0
897,-0.04640341505441993,0.0
898,-0.032821004385166525,0.0
899,-0.04821605881842806,0.0
900,0.23761623792985137,0.0
901,3.610614465628366,0.0
902,6.8747270303682715,0.0
903,-0.4586807333324316,0.0
904,-1.8978346136829436,0.0
905,1.559417307184127,0.0
906,-0.8302455247162702,0.0
907,0.13976471882665362,0.0
908,-0.043415520128143564,0.0
909,-0.05536885641049765,0.0
910,0.026455389116601134,0.0
911,-0.07404805265941308,0.0
912,-0.03833405025104715,0.0
913,-0.08462194301565214,0.0
914,0.05080332412203328,0.0
915,-0.05913196888816,0.0
916,0.03594764452330723,0.0
917,-0.025939932451890767,0.0
918,0.04278945719771633,0.0
919,0.013891530024635081,0.0
920,0.31310950459086234,0.0
921,3.610407078477854,0.0
922,6.846382828375629,0.0
923,-0.472951674789864,0.0
924,-1.9625912983976321,0.0
925,1.6277787011376714,0.0
926,-0.7689278003863821,0.0
927,0.1163802519442433,0.0
928,-0.039457142666698475,0.0
929,-0.0025486970099212053,0.0
930,-0.00043545110264620046,0.0
931,-0.06504016726712683,0.0
932,-0.0504052470624525,0.0
933,0.02044562902232709,0.0
934,-0.021983891524420422,0.0
935,-0.02603587007172197,0.0
936,-0.02110905006989295,0.0
937,-0.020161527037461324,0.0
938,-0.06849939835285489,0.0
939,-0.04295469929689199,0.0
940,0.2705790976047862,0.0
941,3.6128019551177593,0.0
942,6.785382277139487,0.0
943,-0.522138768755094,0.0
944,-1.7719947202959647,0.0
945,1.5127153119317445,0.0
946,-0.8128958779829479,0.0
947,0.20799014340154337,0.0
948,-0.0157824365818285,0.0
949,-0.04597692505340585,0.0
950,0.012819547300400823,0.0
951,-0.11010938256015096,0.0
952,-0.044315361681666866,0.0
953,0.03938120386511451,0.0
954,-0.04722854779922543,0.0
955,-0.10714700604627977,0.0
956,-0.011796394433601108,0.0
957,0.0010503154420245762,0.0
958,0.06208445504053724,0.0
959,0.06805663453743313,0.0
960,0.3264281091313493,0.0
961,3.6716260075065197,0.0
962,6.8219697991863875,0.0
963,-0.5081244552366762,0.0
964,-1.9052774653386473,0.0
965,1.5485485368144005,0.0
966,-0.7756420262886764,0.0
967,0.22164987299137662,0.0
968,0.07987472593165022,0.0
969,-0.015174189547261262,0.0
970,-0.009721641122708728,0.0
971,0.019694548896943383,0.0
972,0.004486107664710814,0.0
973,-0.00280135832339318,0.0
974,0.02599830926071859,0.0
975,0.03816339189656744,0.0
976,-0.01704060904999126,0.0
977,0.07269937669360069,0.0
978,-0.015580569022352124,0.0
979,0.01249533816840901,0.0
980,0.3568433815627079,0.0
981,3.6372483519543004,0.0
982,6.81941848570315,0.0
983,-0.618309036831694,0.0
984,-1.8766085069195315,0.0
985,1.5146312786203513,0.0
986,-0.7047611471494434,0.0
987,0.15275698819484818,0.0
988,0.010855409766302823,0.0
989,-0.0028402230999997266,0.0
990,0.01565257633827365,0.0
991,0.030305511872913405,0.0
992,0.012399570989599014,0.0
993,0.06906730209473386,0.0
994,0.02129812544929067,0.0
995,-0.02084733192791413,0.0
996,0.05955426220928384,0.0
997,0.055979776270232665,0.0
998,0.0145828816589486,0.0
999,-0.054542518535601034,0.0
1000,0.3340489722259048,0.0
1001,3.6984638113178154,0.0
1002,6.778841864438298,0.0
1003,-0.5723155591481802,0.0
1004,-1.8722011057683923,0.0
1005,1.4080067046332148,0.0
1006,-0.7330693224327886,0.0
1007,0.06692331023167425,0.0
1008,0.03560421399668741,0.0
1009,-0.11135196337054387,0.0
1010,-0.008695956881065878,0.0
1011,-0.007004331828700819,0.0
1012,-0.08468544844958772,0.0
1013,-0.06074755468611599,0.0
1014,-0.02925505792910338,0.0
1015,-0.03497938650474092,0.0
1016,-0.03268579234966578,0.0
1017,-0.018548253981301614,0.0
1018,-0.014048022740870726,0.0
1019,0.032050987879454006,0.0
1020,0.34474806219122595,0.0
1021,3.643220585552719,0.0
1022,6.875847753364679,0.0
1023,-0.5223616754932187,0.0
1024,-1.810879241921709,0.0
1025,1.5096415996824815,0.0
1026,-0.6758803781621556,0.0
1027,0.11892316316198931,0.0
1028,0.1525674458256071,0.0
1029,0.0570539167663003,0.0
1030,0.10692166701847616,0.0
1031,0.011935611938956108,0.0
1032,0.08629937295859141,0.0
1033,-0.06809688686016269,0.0
1034,0.029720514475040996,0.0
1035,0.02432887303410919,0.0
1036,-0.016954664892092096,0.0
1037,0.05571042440643668,0.0
1038,0.04297034104240672,0.0
1039,0.004649613235588004,0.0
1040,0.3804345162231189,0.0
1041,3.8424274800270632,0.0
1042,6.958988109251278,0.0
1043,-0.4758426840149874,0.0
1044,-1.7463800933469573,0.0
1045,1.5675326980906523,0.0
1046,-0.6794223581471022,0.0
1047,0.21077230800510144,0.0
1048,0.1583529800630203,0.0
1049,0.026802366992571887,0.0
1050,0.063593467498666,0.0
1051,-0.018396168439894445,0.0
1052,7.192310681342767e-05,0.0
1053,0.165214804004444,0.0
1054,0.028440888854689563,0.0
1055,0.055096116241009296,0.0
1056,0.033264841418681815,0.0
1057,0.035885378843879163,0.0
1058,-0.08371179602082385,0.0
1059,-0.0036906706786061557,0.0
1060,0.32003234811003267,0.0
1061,3.7317552125011226,0.0
1062,6.87256862388435,0.0
1063,-0.5932160843235752,0.0
1064,-1.7229886324812003,0.0
1065,1.5097047231628264,0.0
1066,-0.7524432055409114,0.0
1067,0.18140504068506277,0.0
1068,0.09784012486242094,0.0
1069,-0.049250550197704135,0.0
1070,0.07875502506879827,0.0
1071,0.0006185911022962981,0.0
1072,0.03479374372269825,0.0
1073,0.007777325964523421,0.0
1074,-0.0015635820463605205,0.0
1075,0.04410569709635312,0.0
1076,0.033247340367174236,0.0
1077,0.0763750945070538,0.0
1078,-0.0032209645606318046,0.0
1079,0.07166357560914038,0.0
1080,0.36189661267501566,0.0
1081,3.759691361779929,0.0
1082,6.834995157737253,0.0
1083,-0.4717934407515517,0.0
1084,-1.730609969277998,0.0
1085,1.4769718230527504,0.0
1086,-0.7451461210973487,0.0
1087,0.2069918943256484,0.0
1088,0.029786334482829427,0.0
1089,-0.07242386031721017,0.0
1090,-0.020036305026616862,0.0
1091,-0.0016634252245512357,0.0
1092,0.002808746176518122,0.0
1093,0.08611052900946499,0.0
1094,-0.00708588018588798,0.0
1095,0.025910519741535198,0.0
1096,-0.023487761231253384,0.0
1097,0.015232719095131958,0.0
1098,0.05093316398272303,0.0
1099,-0.022762599704897267,0.0
1100,0.2568097846712141,0.0
1101,3.5969023756413825,0.0
1102,6.762425631219167,0.0
1103,-0.6034875471791872,0.0
1104,-1.7304851083403558,0.0
1105,1.4791262675835977,0.0
1106,-0.8493159499597591,0.0
1107,0.14966229023161978,0.0
1108,-0.0067501611268030535,0.0
1109,-0.05297845055057396,0.0
1110,-0.0004222697887828388,0.0
1111,-0.01566801880146238,0.0
1112,-0.0007650758011442343,0.0
1113,-0.021404501221648164,0.0
1114,0.02677644089242227,0.0
1115,-0.11565381863188101,0.0
1116,0.10120452331419359,0.0
1117,0.021589581202173122,0.0
1118,0.10714161199676814,0.0
1119,0.009467504685394076,0.0
1120,0.3691109376137315,0.0
1121,3.7273893235616278,0.0
1122,6.8067533200275445,0.0
1123,-0.4871170764059773,0.0
1124,-1.8129769449328914,0.0
1125,1.5762052326174656,0.0
1126,-0.7496524154134819,0.0
1127,0.15316797591754758,0.0
1128,-0.0021679238051434836,0.0
1129,-0.0614117304024015,0.0
1130,0.024220096835413416,0.0
1131,-0.04009528974895907,0.0
1132,-0.05414679561259868,0.0
1133,-0.03290317596762356,0.0
1134,-0.08457215694117245,0.0
1135,-0.07953405917490156,0.0
1136,0.035988018721092814,0.0
1137,-0.038292319195599736,0.0
1138,-0.0641276822019376,0.0
1139,-0.05682014650624874,0.0
1140,0.28001661123092125,0.0
1141,3.726812766611319,0.0
1142,6.781271992339665,0.0
1143,-0.5701782077486623,0.0
1144,-1.8434674940908258,0.0
1145,1.4853510637873257,0.0
1146,-0.8381744246248333,0.0
1147,0.17447857592802085,0.0
1148,-0.0788483949285162,0.0
1149,-0.11811843290546029,0.0
1150,0.02849063411241212,0.0
1151,0.0005292180961857865,0.0
1152,-0.06759976740217952,0.0
1153,-0.007002275911592953,0.0
1154,-0.010487048200753902,0.0
1155,-0.0641973819315261,0.0
1156,-0.04955232716398321,0.0
1157,0.027661404695048998,0.0
1158,-0.09695052218024283,0.0
1159,-0.11743656521379675,0.0
1160,0.295143973762769,0.0
1161,3.638941908108675,0.0
1162,6.7913621144758824,0.0
1163,-0.6380292289842964,0.0
1164,-1.8233984113579895,0.0
1165,1.4671711871663682,0.0
1166,-0.7528898749197468,0.0
1167,0.19298681988503888,0.0
1168,-0.00012772732300485366,0.0
1169,-0.09466226067513372,0.0
1170,-0.08423407852823488,0.0
1171,-0.017416234537233222,0.0
1172,-0.05273168184240291,0.0
1173,-0.034413902185409156,0.0
1174,-0.11427854257684109,0.0
1175,-0.040198944188899556,0.0
1176,-0.05974822688150068,0.0
1177,-0.11886622104700137,0.0
1178,-0.19357890904756025,0.0
1179,-0.17564222520357267,0.0
1180,0.10720990700608628,0.0
1181,3.5729051987898095,0.0
1182,6.655886483614592,0.0
1183,-0.6537998590967508,0.0
1184,-1.935012194195224,0.0
1185,1.3777028115607943,0.0
1186,-0.9738753189784134,0.0
1187,0.014655035916265845,0.0
1188,-0.05687586300113282,0.0
1189,-0.21999748284525084,0.0
1190,-0.078000582568548,0.0
1191,-0.032621706749817556,0.0
1192,-0.049949241427598136,0.0
1193,-0.04141395265637342,0.0
1194,-0.017149846887186553,0.0
1195,-0.10863596108435124,0.0
1196,-0.0011370163194896823,0.0
1197,0.0009993051924763047,0.0
1198,-0.0934994302982313,0.0
1199,-0.06146701728540956,0.0
1200,0.3152233502049904,0.0
1201,3.612758397497984,0.0
1202,6.7717058532553,0.0
1203,-0.735169781888257,0.0
1204,-1.7301095699600317,0.0
1205,1.4534394699528501,0.0
1206,-0.7056831567383314,0.0
1207,0.12556052729650982,0.0
1208,-0.017379670949660437,0.0
1209,-0.05770644890080806,0.0
1210,-0.024914400648896926,0.0
1211,0.023866108304428424,0.0
1212,-0.08723640559539736,0.0
1213,-0.09569285272671679,0.0
1214,-0.03800382087844973,0.0
1215,-0.015265958211787566,0.0
1216,-0.016503368711614695,0.0
1217,0.07593427478830231,0.0
1218,-0.058257959714649324,0.0
1219,-0.006399587682335254,0.0
1220,0.39390560546564374,0.0
1221,3.703870336316362,0.0
1222,6.810345523608795,0.0
1223,-0.621489125966043,0.0
1224,-1.7502198894976195,0.0
1225,1.4427112274423555,0.0
1226,-0.7368157461227769,0.0
1227,0.1576441974552029,0.0
1228,0.008390154628846472,0.0
1229,-0.018102818494324074,0.0
1230,-0.08429204044567148,0.0
1231,-0.1377861839563102,0.0
1232,-0.10377302421760504,0.0
1233,-0.053578469973291284,0.0
1234,0.01821976291338776,0.0
1235,0.022363384732084844,0.0
1236,-0.03529476481215542,0.0
1237,-0.002439337967948353,0.0
1238,-0.11853333708618963,0.0
1239,-0.02099871074641433,0.0
1240,0.20861685062638244,0.0
1241,3.738102861932842,0.0
1242,6.78377233914051,0.0
1243,-0.7236848189108889,0.0
1244,-1.8037388393265406,0.0
1245,1.4342019822518293,0.0
1246,-0.840096459492026,0.0
1247,0.0910955318671953,0.0
1248,-0.07826694530368947,0.0
1249,-0.0871110874634181,0.0
1250,-0.0024661663767747283,0.0
1251,-0.05561035833209682,0.0
1252,0.018758512694435063,0.0
1253,-0.12982622081090198,0.0
1254,0.008544485952387687,0.0
1255,-0.08591355325467485,0.0
1256,0.011779819791962708,0.0
1257,0.012073228780846743,0.0
1258,-0.07976086531743329,0.0
1259,-0.07782173954896958,0.0
1260,0.2649367293390651,0.0
1261,3.6825777404962006,0.0
1262,6.780987377157587,0.0
1263,-0.5801754098265517,0.0
1264,-1.6704493546327446,0.0
1265,1.573457724552946,0.0
1266,-0.7328935267505811,0.0
1267,0.2326680623270913,0.0
1268,0.016915306539495988,0.0
1269,0.09885500118098339,0.0
1270,0.007623140661098801,0.0
1271,-0.04029475443000617,0.0
1272,-0.0509983695067434,0.0
1273,0.05225944963562503,0.0
1274,-0.06668943270486324,0.0
1275,0.05168209519524147,0.0
1276,0.0037688549034443613,0.0
1277,-0.04570347479016729,0.0
1278,0.020225541467991277,0.0
1279,-0.06974555866830551,0.0
1280,0.24280548290352896,0.0
1281,3.6711653894829883,0.0
1282,6.787767146662891,0.0
1283,-0.6597892883588861,0.0
1284,-1.8551797292482415,0.0
1285,1.4472604810058938,0.0
1286,-0.7561434574686863,0.0
1287,0.2056537279038499,0.0
1288,0.03889996235487051,0.0
1289,-0.12141483521644765,0.0
1290,-0.06930097645717703,0.0
1291,0.11429480017602783,0.0
1292,-0.04705769297333532,0.0
1293,0.10534970455473507,0.0
1294,-0.025488218258055403,0.0
1295,-0.03824229991108054,0.0
1296,0.009538707096448364,0.0
1297,-0.019024621415624166,0.0
1298,0.027087150601584464,0.0
1299,0.008723744426180981,0.0
1300,0.3752450891595823,0.0
1301,3.7679999443932553,0.0
1302,6.732781265328964,0.0
1303,-0.5861983226366096,0.0
1304,-1.7248422434556916,0.0
1305,1.4993514615533492,0.0
1306,-0.6451428146541821,0.0
1307,0.16018102364920503,0.0
1308,0.006364104133035644,0.0
1309,0.03802774593434362,0.0
1310,0.02079079154624447,0.0
1311,0.02907530169470992,0.0
1312,-0.023677103501107657,0.0
1313,-0.0393227387128784,0.0
1314,-0.04765859724316798,0.0
1315,-0.03257856389352576,0.0
1316,0.014774793837027962,0.0
1317,-0.10425855560673794,0.0
1318,-0.11234410969315667,0.0
1319,-0.01631235400189323,0.0
1320,0.2802171831709701,0.0
1321,3.617908770192598,0.0
1322,6.641009648121249,0.0
1323,-0.6431487495154442,0.0
1324,-1.8595945046845888,0.0
1325,1.5194467409691648,0.0
1326,-0.8578437914928346,0.0
1327,0.20079829370529823,0.0
1328,0.06690463287758926,0.0
1329,0.05362884651527976,0.0
1330,-0.038965518786498995,0.0
1331,-0.01964120090657161,0.0
1332,0.08207622807179686,0.0
1333,0.05442698445919013,0.0
1334,0.07026244115292983,0.0
1335,-0.0007290678378872803,0.0
1336,0.0830501333736651,0.0
1337,0.026844506706487685,0.0
1338,0.06417424623147464,0.0
1339,0.05109879683671813,0.0
1340,0.32054704083106583,0.0
1341,3.798236122250055,0.0
1342,6.943200501313201,0.0
1343,-0.6315396048596653,0.0
1344,-1.709158608270613,0.0
1345,1.5937168618162558,0.0
1346,-0.671027308139432,0.0
1347,0.2171174641899835,0.0
1348,0.046918637698234,0.0
1349,-0.07291666805266386,0.0
1350,0.10558877653803803,0.0
1351,-0.019718268610826782,0.0
1352,0.0482199480645607,0.0
1353,0.08407790853709432,0.0
1354,-0.05821425571665574,0.0
1355,-0.022539745974128403,0.0
1356,-0.03068817733903812,0.0
1357,0.08405712510667705,0.0
1358,0.04429330636267713,0.0
1359,-0.008273143332655691,0.0
1360,0.30827363761910104,0.0
1361,3.791173902002979,0.0
1362,6.780394757042226,0.0
1363,-0.5953928456233687,0.0
1364,-1.6845834786522773,0.0
1365,1.4652114069520452,0.0
1366,-0.6601082683657917,0.0
1367,0.22668086662257042,0.0
1368,-0.013267475618832708,0.0
1369,-0.04602572878360289,0.0
1370,0.07795445778209839,0.0
1371,0.04313984002075731,0.0
1372,0.007315176200638693,0.0
1373,0.08614806635228693,0.0
1374,0.0026651063976664557,0.0
1375,0.048853278120737316,0.0
1376,-0.003410942987028001,0.0
1377,0.06736607194334696,0.0
1378,-0.034832509335363866,0.0
1379,0.12621636361410726,0.0
1380,0.371048020625865,0.0
1381,3.8498205900889144,0.0
1382,6.93123014598961,0.0
1383,-0.6083201374398253,0.0
1384,-1.7401549947414887,0.0
1385,1.5383849190942693,0.0
1386,-0.7118718307330251,0.0
1387,0.17577983880257902,0.0
1388,0.051386498838421335,0.0
1389,-0.0004288037798058711,0.0
1390,0.03675404731145035,0.0
1391,-0.02574818978109506,0.0
1392,-0.09306311612921883,0.0
1393,-0.07000525562258514,0.0
1394,-0.03525505807840723,0.0
1395,0.1015269062316177,0.0
1396,-0.0004310602063892256,0.0
1397,0.0723273439521726,0.0
1398,0.03277810876196481,0.0
1399,0.11588795019448178,0.0
1400,0.45080446956769116,0.0
1401,3.8197179520319406,0.0
1402,6.7163531362856075,0.0
1403,-0.6380194181438714,0.0
1404,-1.7164453422227108,0.0
1405,1.408055343649554,0.0
1406,-0.8397826145651341,0.0
1407,0.022354578566335173,0.0
1408,-0.10926226025933886,0.0
1409,-0.23863602387397448,0.0
1410,-0.08862017870582098,0.0
1411,-0.10584103102543829,0.0
1412,-0.18439048400081767,0.0
1413,-0.14810771348717988,0.0
1414,-0.12034220381427299,0.0
1415,-0.03843646083656882,0.0
1416,-0.053501663781184025,0.0
1417,-0.043739017452860636,0.0
1418,-0.029631534015234842,0.0
1419,0.0697001771674525,0.0
1420,0.4083207297770274,0.0
1421,3.7745580001757637,0.0
1422,6.822844708771873,0.0
1423,-0.6188865479260522,0.0
1424,-1.6537250132514025,0.0
1425,1.5667749189744002,0.0
1426,-0.7813171416049214,0.0
1427,0.20097929783580867,0.0
1428,0.030366289494242842,0.0
1429,-0.06348864450177824,0.0
1430,-0.001988532921113447,0.0
1431,0.03856073439664205,0.0
1432,0.04614892289048765,0.0
1433,0.07500676056683053,0.0
1434,-0.01395217969100834,0.0
1435,-0.01990202814492145,0.0
1436,-0.047587226515372325,0.0
1437,0.05225052769850312,0.0
1438,-0.00978260726664229,0.0
1439,-0.08614169466336613,0.0
1440,0.3256993903108555,0.0
1441,3.692879593999695,0.0
1442,6.742086637261321,0.0
1443,-0.6853455564246124,0.0
1444,-1.8031206617450628,0.0
1445,1.4839915065177278,0.0
1446,-0.8489802999800053,0.0
1447,0.15907969977249048,0.0
1448,-0.08929298309107575,0.0
1449,-0.055547513055293644,0.0
1450,-0.0386330223957998,0.0
1451,-0.07247932715218122,0.0
1452,-0.07012629190586187,0.0
1453,-0.024667580984554273,0.0
1454,-0.0643932420188893,0.0
1455,0.0032686080847694754,0.0
1456,-0.09550352325437847,0.0
1457,-0.05523724540159728,0.0
1458,-0.08910620179770681,0.0
1459,-0.009022253542708109,0.0
1460,0.27250378964472927,0.0
1461,3.8234577637466978,0.0
1462,6.753522207208863,0.0
1463,-0.6892303346582566,0.0
1464,-1.7597426383819224,0.0
1465,1.5241785020600944,0.0
1466,-0.7916690693734997,0.0
1467,0.13874814275571695,0.0
1468,-0.004945812027992562,0.0
1469,-0.06817233077621554,0.0
1470,0.040300123077421535,0.0
1471,-0.0377588026531304,0.0
1472,-0.018910046596246455,0.0
1473,-0.06888261874887511,0.0
1474,-0.045458467518474946,0.0
1475,0.04241299306819902,0.0
1476,0.048528167495988137,0.0
1477,-0.16341485709647885,0.0
1478,-0.05631637346760309,0.0
1479,-0.12859511774159757,0.0
1480,0.2508585299373956,0.0
1481,3.7251172026259494,0.0
1482,6.7404497966704335,0.0
1483,-0.7325114110907753,0.0
1484,-1.6875540671166585,0.0
1485,1.4171572581445908,0.0
1486,-0.8192576131612844,0.0
1487,0.14279829226629667,0.0
1488,-0.1290676055432998,0.0
1489,-0.15469651550281055,0.0
1490,-0.13162019943064573,0.0
1491,-0.09084602708431083,0.0
1492,-0.07724027059934799,0.0
1493,-0.016902214873161164,0.0
1494,-0.027378460446446373,0.0
1495,0.029394980605812297,0.0
1496,-0.09270143022770086,0.0
1497,-0.07752114995573345,0.0
1498,0.038872308367122146,0.0
1499,-0.018057749068222842,0.0
1500,0.20312580188938514,0.0
1501,3.665058781887287,0.0
1502,6.726848719940634,0.0
1503,-0.6200582450616352,0.0
1504,-1.7598809895957601,0.0
1505,1.5510191805996572,0.0
1506,-0.6696438194675983,0.0
1507,0.14626803496140978,0.0
1508,-0.012628228577552442,0.0
1509,0.02489509379397528,0.0
1510,-0.08396109215482354,0.0
1511,-0.04476202445162997,0.0
1512,0.05876596770107692,0.0
1513,-0.011061598855351747,0.0
1514,0.00167968332511877,0.0
1515,-0.04365642345439459,0.0
1516,0.04077383845481464,0.0
1517,0.023471151785528433,0.0
1518,-0.05312204860023396,0.0
1519,0.042926291440683245,0.0
1520,0.4287239221805271,0.0
1521,3.8118468828937466,0.0
1522,6.775704303841499,0.0
1523,-0.5453649116200641,0.0
1524,-1.6502783045266702,0.0
1525,1.6020607253877692,0.0
1526,-0.6739787820552973,0.0
1527,0.12179625802553466,0.0
1528,0.058888904405563616,0.0
1529,0.014028124750957056,0.0
1530,-0.02351138293936863,0.0
1531,-0.0037452172114794333,0.0
1532,0.013988248216327203,0.0
1533,-0.0416424518803189,0.0
1534,0.022491786920975254,0.0
1535,-0.028784914014346907,0.0
1536,-0.043804704188835523,0.0
1537,-0.09983077929772946,0.0
1538,0.03555341431678967,0.0
1539,-0.0937078714549006,0.0
1540,0.2768125687710149,0.0
1541,3.6575824863242854,0.0
1542,6.716817716107802,0.0
1543,-0.768593691847102,0.0
1544,-1.7211626089915244,0.0
1545,1.4383091819529463,0.0
1546,-0.8122421419384774,0.0
1547,0.11532149295309059,0.0
1548,-0.015245956143482876,0.0
1549,-0.05316275208654329,0.0
1550,0.0054849459034613185,0.0
1551,0.027928517808177566,0.0
1552,-0.04943105892360022,0.0
1553,0.0532732458383941,0.0
1554,-0.0452221796878849,0.0
1555,-0.04807579508227554,0.0
1556,-0.08537962145616351,0.0
1557,-0.04826389096859241,0.0
1558,-0.05807957172351738,0.0
1559,-0.07438208547832521,0.0
1560,0.25355719791207554,0.0
1561,3.7147678597381755,0.0
1562,6.673430458471276,0.0
1563,-0.7733929863802238,0.0
1564,-1.8119920733272952,0.0
1565,1.487637576993148,0.0
1566,-0.761184404085446,0.0
1567,0.2009261660228463,0.0
1568,-0.03814563507636855,0.0
1569,-0.14062902018886475,0.0
1570,-0.018041312673364562,0.0
1571,-0.13316081112527378,0.0
1572,-0.0008512762474082274,0.0
1573,-0.01768442470904908,0.0
1574,0.015663543733811618,0.0
1575,-0.1416082597285565,0.0
1576,-0.07388796608549847,0.0
1577,-0.03569568069462695,0.0
1578,-0.055972041376358764,0.0
1579,-0.04227543869732367,0.0
1580,0.33946152446805566,0.0
1581,3.758749155872026,0.0
1582,6.721407393622812,0.0
1583,-0.7663831024669057,0.0
1584,-1.7418035738564202,0.0
1585,1.417053866557076,0.0
1586,-0.8915253653017846,0.0
1587,0.08102894594401149,0.0
1588,-0.10480685652857925,0.0
1589,-0.04797392906040023,0.0
1590,-0.014273923985612176,0.0
1591,-0.12834867466732963,0.0
1592,0.012003455380942524,0.0
1593,0.03403799957111882,0.0
1594,-0.043258665649635354,0.0
1595,-0.03224700523415655,0.0
1596,0.0243299594125638,0.0
1597,-0.13985374807312564,0.0
1598,-0.06109700021675228,0.0
1599,-0.045119234323280646,0.0
1600,0.28391674075847373,0.0
1601,3.764735876935299,0.0
1602,6.6930125581768705,0.0
1603,-0.6824369654485675,0.0
1604,-1.7742981996961467,0.0
1605,1.4795901345708131,0.0
1606,-0.9005079642680639,0.0
1607,0.09262869682729519,0.0
1608,-0.08538593061350189,0.0
1609,-0.046726634508983775,0.0
1610,-0.024558175472214748,0.0
1611,-0.09685829698418275,0.0
1612,-0.10673406439269828,0.0
1613,-0.025768342031325688,0.0
1614,-0.030025374253305852,0.0
1615,0.000945739170327288,0.0
1616,-0.02920758595408926,0.0
1617,0.052621274740264935,0.0
1618,-0.030608728226570976,0.0
1619,-0.09709070256974128,0.0
1620,0.3318910690174449,0.0
1621,3.7665706510138772,0.0
1622,6.745906665677971,0.0
1623,-0.7157455923429453,0.0
1624,-1.7833276493735546,0.0
1625,1.4726211409977008,0.0
1626,-0.843958299879348,0.0
1627,0.176510529811203,0.0
1628,0.015586408428824347,0.0
1629,-0.08441721726921009,0.0
1630,-0.03583185870688405,0.0
1631,-0.05533120383242064,0.0
1632,-0.10522668958530002,0.0
1633,-0.002526400728246017,0.0
1634,-0.022968636388194928,0.0
1635,-0.18352899807573814,0.0
1636,-0.13839244451940275,0.0
1637,-0.1556456495575499,0.0
1638,-0.058041120447681074,0.0
1639,-0.12429786926836528,0.0
1640,0.22238662388858765,0.0
1641,3.6513250315617705,0.0
1642,6.69978881449755,0.0
1643,-0.8815187807578531,0.0
1644,-1.7304700626682648,0.0
1645,1.4066548987953493,0.0
1646,-0.8442772796194907,0.0
1647,0.00025295231968488346,0.0
1648,-0.10408888327409441,0.0
1649,-0.12867531362672405,0.0
1650,-0.09950353185141031,0.0
1651,-0.16360724722676523,0.0
1652,-0.11666925811942518,0.0
1653,-0.050226317309579535,0.0
1654,-0.009553474712489796,0.0
1655,-0.11989686877768109,0.0
1656,0.0035994441382550396,0.0
1657,-0.1071264069252713,0.0
1658,-0.1489137403910474,0.0
1659,-0.06716997202137835,0.0
1660,0.22585395267939531,0.0
1661,3.714928197110784,0.0
1662,6.699360896909182,0.0
1663,-0.8137264953148785,0.0
1664,-1.7698679506951775,0.0
1665,1.4508782781065765,0.0
1666,-0.7942958262570289,0.0
1667,0.08387466905001403,0.0
1668,-0.0951919953982173,0.0
1669,-0.020110989873802984,0.0
1670,-0.005317753131636679,0.0
1671,-0.03169169557444722,0.0
1672,-0.07353468676826178,0.0
1673,0.019602972946993744,0.0
1674,-0.06693986729871854,0.0
1675,-0.0946026377608014,0.0
1676,-0.050270046243645936,0.0
1677,-0.029464853201319904,0.0
1678,-0.020072254698446996,0.0
1679,0.052364054294173026,0.0
1680,0.31670522481717756,0.0
1681,3.7156378850885594,0.0
1682,6.652291870869057,0.0
1683,-0.6899793579179878,0.0
1684,-1.7676941706336606,0.0
1685,1.4212160993023715,0.0
1686,-0.808292231856427,0.0
1687,0.14683930523127356,0.0
1688,0.021997944853367493,0.0
1689,-0.11177705580517919,0.0
1690,0.05364116824339804,0.0
1691,-0.1229558118233891,0.0
1692,-0.117104855800887,0.0
1693,-0.14153007326531664,0.0
1694,-0.06309330250670991,0.0
1695,0.026935865208144186,0.0
1696,-0.1275078886893779,0.0
1697,-0.0558301410512222,0.0
1698,-0.03496850677301952,0.0
1699,-0.05212613508411348,0.0
1700,0.1601158460802527,0.0
1701,3.711754066713565,0.0
1702,6.651649369085163,0.0
1703,-0.7743795799340114,0.0
1704,-1.8079196298330058,0.0
1705,1.4631393442504743,0.0
1706,-0.83852755238095,0.0
1707,0.14580302674015178,0.0
1708,-0.008672142598397228,0.0
1709,-0.1315848512837963,0.0
1710,-0.06965350367644667,0.0
1711,-0.0236700658142958,0.0
1712,-0.0491055805112868,0.0
1713,0.027779027372329162,0.0
1714,-0.053496898314278084,0.0
1715,-0.035528396417325595,0.0
1716,0.015132684307649236,0.0
1717,-0.08088865264167486,0.0
1718,-0.08266198752245929,0.0
1719,0.001514293165221857,0.0
1720,0.2780629779367426,0.0
1721,3.702352906623293,0.0
1722,6.772766921733403,0.0
1723,-0.7615396823020175,0.0
1724,-1.6537547283516185,0.0
1725,1.444848514880264,0.0
1726,-0.8135413617672539,0.0
1727,0.05053607724344232,0.0
1728,-0.007875047614243893,0.0
1729,-0.008009065001323298,0.0
1730,-0.10542069984664704,0.0
1731,-0.05865972466290177,0.0
1732,-0.007788788499851526,0.0
1733,-0.10065827127281204,0.0
1734,-0.010799388328523063,0.0
1735,0.06781256348083414,0.0
1736,-0.04961922951832428,0.0
1737,-0.08402760950231739,0.0
1738,-0.043159981472827284,0.0
1739,0.02694979331828569,0.0
1740,0.17794642005020156,0.0
1741,3.7225767527019467,0.0
1742,6.738501477971365,0.0
1743,-0.7627570335234339,0.0
1744,-1.6286406947495153,0.0
1745,1.4843753399371231,0.0
1746,-0.751197753067558,0.0
1747,0.14858124836067016,0.0
1748,-0.06011836244396121,0.0
1749,-0.04611100005445485,0.0
1750,-0.037090707183632145,0.0
1751,-0.04861853308236566,0.0
1752,0.08640938042482374,0.0
1753,-0.0625894600888677,0.0
1754,-0.02269872295508385,0.0
1755,-0.00029199422595399885,0.0
1756,-0.05453649007019819,0.0
1757,0.005702052051443075,0.0
1758,-0.05782754305190871,0.0
1759,-0.034536395592799855,0.0
1760,0.25578059345042914,0.0
1761,3.858964737988943,0.0
1762,6.758623030310777,0.0
1763,-0.7616765051966641,0.0
1764,-1.6348420902308847,0.0
1765,1.4807777489404912,0.0
1766,-0.6834506962695474,0.0
1767,0.22489757039691077,0.0
1768,0.004360898462289932,0.0
1769,-0.07146328960446657,0.0
1770,0.02955627284585685,0.0
1771,0.004769799057295611,0.0
1772,-0.05617866310985037,0.0
1773,-0.02395498214656792,0.0
1774,-0.053459511560684916,0.0
1775,-0.052424429852558935,0.0
1776,-0.017766587887539684,0.0
1777,0.021596854104736996,0.0
1778,-0.0977348429538445,0.0
1779,-0.024881185049864824,0.0
1780,0.33228798826570166,0.0
1781,3.8075352217046956,0.0
1782,6.7642199204132645,0.0
1783,-0.7721864980117747,0.0
1784,-1.7695917072622493,0.0
1785,1.5152582438486037,0.0
1786,-0.7494585847219529,0.0
1787,0.2339323785608889,0.0
1788,-0.014198860247627586,0.0
1789,-0.027361528714328728,0.0
1790,-0.11354238794019073,0.0
1791,0.05395561728946608,0.0
1792,0.035409289906398855,0.0
1793,0.028581658348153606,0.0
1794,-0.033789382944388054,0.0
1795,-0.0437144519112757,0.0
1796,-0.12200358977459423,0.0
1797,-0.13539410683276157,0.0
1798,-0.1215270140487912,0.0
1799,-0.10605423786134313,0.0
1800,0.23413250702340294,0.0
1801,3.7066106382283026,0.0
1802,6.535902853339137,0.0
1803,-0.8085232589889557,0.0
1804,-1.7201853291973668,0.0
1805,1.3851116932345924,0.0
1806,-0.7858003166805814,0.0
1807,0.14064012079884905,0.0
1808,0.005367601147430666,0.0
1809,-0.03597042187718182,0.0
1810,-0.007661000100138975,0.0
1811,0.06943241456397505,0.0
1812,-0.014395624986663219,0.0
1813,0.036559345418703204,0.0
1814,0.06676185910081425,0.0
1815,0.027441044879844285,0.0
1816,0.07712738220515893,0.0
1817,0.06657226211336709,0.0
1818,0.02897680867832031,0.0
1819,0.03723079140659449,0.0
1820,0.4681177338475887,0.0
1821,3.8485686569630966,0.0
1822,6.772464623023929,0.0
1823,-0.7205231186571314,0.0
1824,-1.6426927895494394,0.0
1825,1.5703198187161764,0.0
1826,-0.7610689005112797,0.0
1827,0.16816533886532556,0.0
1828,0.007770863192465913,0.0
1829,-0.07923574478047976,0.0
1830,0.032260100398795566,0.0
1831,-0.04250835222753745,0.0
1832,0.02189218110044306,0.0
1833,0.0038424719979390926,0.0
1834,0.017888388722968628,0.0
1835,-0.12861671869974478,0.0
1836,0.01252520358135896,0.0
1837,-0.010264622367650883,0.0
1838,0.0023250015439239824,0.0
1839,-0.09628687337980692,0.0
1840,0.3876842948269171,0.0
1841,3.7569630547486,0.0
1842,6.73478935735429,0.0
1843,-0.7307349747215128,0.0
1844,-1.7032228895183616,0.0
1845,1.4594440002616045,0.0
1846,-0.8029039384311284,0.0
1847,0.20026737358617855,0.0
1848,-0.04789871250701294,0.0
1849,-0.07565777955370173,0.0
1850,0.009592985045599405,0.0
1851,-0.036095999503118245,0.0
1852,-0.06615932542030167,0.0
1853,0.004973121337851043,0.0
1854,-0.0746034306215684,0.0
1855,-0.03068336878645907,0.0
1856,0.022288228651888387,0.0
1857,0.04425602912273664,0.0
1858,0.023423702529429408,0.0
1859,0.08446981508314351,0.0
1860,0.3360895143280383,0.0
1861,3.8849182856990994,0.0
1862,6.8446969444584225,0.0
1863,-0.6964234222356309,0.0
1864,-1.661911982635064,0.0
1865,1.5983789496255956,0.0
1866,-0.6892409880978296,0.0
1867,0.1752285366155655,0.0
1868,0.050341510036081345,0.0
1869,0.0037506494427614256,0.0
1870,0.1107667762816677,0.0
1871,-0.010209250386181385,0.0
1872,0.0615472078059459,0.0
1873,-0.04713316233143992,0.0
1874,0.05557524689644218,0.0
1875,0.07122581118589527,0.0
1876,-0.03361026209749868,0.0
1877,-0.001711846413456581,0.0
1878,0.036127310000093366,0.0
1879,-0.03704225251672373,0.0
1880,0.3789573556878194,0.0
1881,3.874063461065043,0.0
1882,6.7745810150326236,0.0
1883,-0.7532018905361066,0.0
1884,-1.7498003051788447,0.0
1885,1.3838086210789984,0.0
1886,-0.7628036021309653,0.0
1887,0.1792191969562591,0.0
1888,0.06174129900982876,0.0
1889,0.05405407273035687,0.0
1890,-0.02181986827632961,0.0
1891,0.17451303745487584,0.0
1892,-0.0010155081250575989,0.0
1893,-0.11633477622228677,0.0
1894,0.054663658234869544,0.0
1895,-0.07031328025833888,0.0
1896,0.05343685039088198,0.0
1897,-0.05230575204916947,0.0
1898,-0.0742731016094377,0.0
1899,-0.0350408430809073,0.0
1900,0.25942038290876057,0.0
1901,3.816792687585872,0.0
1902,6.6760293197081335,0.0
1903,-0.876571074717775,0.0
1904,-1.6659406554371925,0.0
1905,1.5302867183880255,0.0
1906,-0.7097524148304446,0.0
1907,0.18692902907820097,0.0
1908,-0.05716763256697073,0.0
1909,-0.062128547253342034,0.0
1910,0.04439086059495778,0.0
1911,0.05121376422901442,0.0
1912,0.04697168110777582,0.0
1913,0.04747165405272191,0.0
1914,0.029742700997829514,0.0
1915,0.03655961109079142,0.0
1916,0.06630802881290732,0.0
1917,0.15701847911645414,0.0
1918,0.02343763678220837,0.0
1919,0.023425316008379098,0.0
1920,0.3990675485870118,0.0
1921,3.8371702425298246,0.0
1922,6.749069811886285,0.0
1923,-0.6807843740190054,0.0
1924,-1.6142632533534513,0.0
1925,1.5608400829252664,0.0
1926,-0.8467470278871873,0.0
1927,0.20264237649653602,0.0
1928,0.14278985561013596,0.0
1929,0.005954384920702025,0.0
1930,0.010752425118076253,0.0
1931,0.10173356031150965,0.0
1932,-0.037462649135717674,0.0
1933,-0.04167048481688467,0.0
1934,0.04924403997042016,0.0
1935,-0.03456611158954814,0.0
1936,0.044043582164791414,0.0
1937,0.03612896755872192,0.0
1938,0.0574042997314957,0.0
1939,-0.012268380891128243,0.0
1940,0.41044510047454896,0.0
1941,3.824985287466384,0.0
1942,6.7741833862819565,0.0
1943,-0.7492563157072788,0.0
1944,-1.6523137619098702,0.0
1945,1.5092453051397183,0.0
1946,-0.7095597482972391,0.0
1947,0.2044340483557628,0.0
1948,-0.004903817349091837,0.0
1949,0.046058119493157995,0.0
1950,0.02212453351764638,0.0
1951,-0.013025574604755754,0.0
1952,-0.03450674683073534,0.0
1953,0.017348623953438072,0.0
1954,0.07316289690471328,0.0
1955,-0.020199911562754094,0.0
1956,-0.012493768206823658,0.0
1957,-0.013444458892064443,0.0
1958,0.05455117643138518,0.0
1959,0.061927668170346464,0.0
1960,0.5286553974942686,0.0
1961,3.946437875159911,0.0
1962,6.773600046166915,0.0
1963,-0.6425149395653842,0.0
1964,-1.623947118373633,0.0
1965,1.5300543560680144,0.0
1966,-0.7517793774830264,0.0
1967,0.24069327229442034,0.0
1968,0.018625848350867925,0.0
1969,0.12555965975168049,0.0
1970,0.09580640319557102,0.0
1971,0.018107138412486404,0.0
1972,0.12102592852733943,0.0
1973,-0.05068446852126679,0.0
1974,0.025629727792825192,0.0
1975,0.03515303017178809,0.0
1976,0.012416736489468665,0.0
1977,-0.0027931258331697975,0.0
1978,0.06575693689136348,0.0
1979,0.11234460758207569,0.0
1980,0.3356374030109254,0.0
1981,3.91417717289537,0.0
1982,6.793808305148918,0.0
1983,-0.7049739238537863,0.0
1984,-1.6715600459173077,0.0
1985,1.5302048971169155,0.0
1986,-0.7453484431078085,0.0
1987,0.1550813932987052,0.0
1988,-0.07914017852281141,0.0
1989,-0.05995794113667144,0.0
1990,0.08133077892609245,0.0
1991,-0.0185896866434678,0.0
1992,0.019350945888958606,0.0
1993,-0.07758225603678513,0.0
1994,0.061076503927023615,0.0
1995,-0.0195226829038918,0.0
1996,-0.04486449164550257,0.0
1997,-0.07657406288813814,0.0
1998,-0.08512907653784618,0.0
1999,-0.03560616486647487,0.0
2000,0.23230955456711716,0.0
2001,3.835042173235774,0.0
2002,6.720657288104271,0.0
2003,-0.7897688771330174,0.0
2004,-1.6143891122117726,0.0
2005,1.5008465391405166,0.0
2006,-0.7273819010457339,0.0
2007,0.20250317130899148,0.0
2008,-0.037346606459677814,0.0
2009,0.008724439045687336,0.0
2010,0.011610439996132607,0.0
2011,0.05370414693972541,0.0
2012,0.142017302342693,0.0
2013,0.03570764156219307,0.0
2014,-0.04646187202104988,0.0
2015,0.06156162377449624,0.0
2016,0.05714219651580233,0.0
2017,0.0639913265172315,0.0
2018,-0.01976906312009495,0.0
2019,-0.007341784456454659,0.0
2020,0.39017191056673456,0.0
2021,3.7536204956078354,0.0
2022,6.7598681059617665,0.0
2023,-0.8507073587293579,0.0
2024,-1.574810045759471,0.0
2025,1.435904684980332,0.0
2026,-0.8360902555936447,0.0
2027,0.25686180575200895,0.0
2028,-0.02547339264394801,0.0
2029,0.04217305370660637,0.0
2030,0.03466501975934417,0.0
2031,-0.05151331456681185,0.0
2032,-0.07515700105359956,0.0
2033,0.02968374061763407,0.0
2034,0.01635120850943351,0.0
2035,0.0038260228111903164,0.0
2036,0.024056644982873382,0.0
2037,0.018868850862407086,0.0
2038,-0.0018941182114616123,0.0
2039,-0.01575891178070145,0.0
2040,0.44540662664075,0.0
2041,3.900713798704167,0.0
2042,6.594404410480243,0.0
2043,-0.8723237825547872,0.0
2044,-1.4795368373679763,0.0
2045,1.517694293256336,0.0
2046,-0.8070860549928677,0.0
2047,0.1343953112432139,0.0
2048,-0.057223937820699,0.0
2049,0.06119285210826311,0.0
2050,0.14519747117339143,0.0
2051,0.03610262943730229,0.0
2052,0.02003384337464071,0.0
2053,0.007082097908954255,0.0
2054,0.030751061383753723,0.0
2055,0.014724498397843629,0.0
2056,0.006493925273129711,0.0
2057,0.10410704351719471,0.0
2058,0.11189867680661528,0.0
2059,0.06953369651835602,0.0
2060,0.4596237905686073,0.0
2061,4.016833121684534,0.0
2062,6.802762776572289,0.0
2063,-0.69721779717741,0.0
2064,-1.5728285104825441,0.0
2065,1.5711496146587511,0.0
2066,-0.7920015413843907,0.0
2067,0.2656742253732069,0.0
2068,-0.010548512022158153,0.0
2069,-0.04157527923358927,0.0
2070,-0.03911941318803143,0.0
2071,0.0006044799529505568,0.0
2072,-0.019238503435376975,0.0
2073,0.03949663037837065,0.0
2074,0.03966559467763499,0.0
2075,-0.01839413035071636,0.0
2076,0.017545561176977212,0.0
2077,-0.006200312973560929,0.0
2078,0.037161469854176565,0.0
2079,0.006506452174844926,0.0
2080,0.3340492495804911,0.0
2081,3.9805145042652117,0.0
2082,6.8128835046764955,0.0
2083,-0.7135256770017545,0.0
2084,-1.5753113778550683,0.0
2085,1.5391253849346351,0.0
2086,-0.6168763188335487,0.0
2087,0.3121799869106332,0.0
2088,0.06804519023996325,0.0
2089,0.005581638810423686,0.0
2090,-0.013980630734046678,0.0
2091,0.04442350727422263,0.0
2092,0.025972897476455238,0.0
2093,-0.004658874008785459,0.0
2094,0.010199499982391558,0.0
2095,-0.06577599686026872,0.0
2096,0.03717189257148643,0.0
2097,0.12888568015951696,0.0
2098,-0.059448721466608456,0.0
2099,0.08529896576961406,0.0
2100,0.4451959103498435,0.0
2101,3.98549729720362,0.0
2102,6.841437902965312,0.0
2103,-0.8165574318519296,0.0
2104,-1.5657573622513836,0.0
2105,1.5479698315939385,0.0
2106,-0.8021948293037134,0.0
2107,0.25734120982474284,0.0
2108,0.036267373679128335,0.0
2109,-0.006117571326287374,0.0
2110,0.0904172424501561,0.0
2111,0.0403111670292278,0.0
2112,-0.03329128828258959,0.0
2113,0.04367013994299802,0.0
2114,0.020421345402171796,0.0
2115,0.05604327786858338,0.0
2116,0.011495321185070009,0.0
2117,-0.08978467619491373,0.0
2118,-0.01396611351668146,0.0
2119,-0.05514624839197169,0.0
2120,0.4725206425777364,0.0
2121,3.9493626141152878,0.0
2122,6.687619274995364,0.0
2123,-0.8253957240092824,0.0
2124,-1.6370801775560329,0.0
2125,1.4848737395494862,0.0
2126,-0.8252291270531534,0.0
2127,0.25168186348886046,0.0
2128,-0.03864244473143751,0.0
2129,-0.020439404106047852,0.0
2130,0.09468172693294413,0.0
2131,-0.0844501726940276,0.0
2132,-0.020278106581427313,0.0
2133,0.03300472802128156,0.0
2134,-0.018599582178309402,0.0
2135,0.14831043153157555,0.0
2136,0.08150725296239389,0.0
2137,0.0665365764830344,0.0
2138,0.12966470664521923,0.0
2139,0.06757775424168294,0.0
2140,0.4791667090568224,0.0
2141,3.991054644423402,0.0
2142,6.87343314090175,0.0
2143,-0.6998665832870812,0.0
2144,-1.4711904871057473,0.0
2145,1.649205473544132,0.0
2146,-0.671826355852993,0.0
2147,0.27056774636369124,0.0
2148,0.018861530463511245,0.0
2149,0.02180209755816953,0.0
2150,0.06515969671606175,0.0
2151,-0.018780386573224634,0.0
2152,-0.04748549006551078,0.0
2153,-0.020077550032941146,0.0
2154,-0.053776714315186463,0.0
2155,0.053586563989926304,0.0
2156,-0.02155082052648598,0.0
2157,0.041296505141873746,0.0
2158,0.012010752036026452,0.0
2159,-0.04521364703468006,0.0
2160,0.31260927019332496,0.0
2161,3.8761592403004532,0.0
2162,6.791123781065099,0.0
2163,-0.7647447390973963,0.0
2164,-1.615627667544136,0.0
2165,1.4417443282514721,0.0
2166,-0.7807330925438787,0.0
2167,0.2592182435031508,0.0
2168,-0.03506562119650161,0.0
2169,0.021362494960934307,0.0
2170,0.038969793417509384,0.0
2171,-0.05306186234452192,0.0
2172,-0.00018731605899414668,0.0
2173,-0.041754828619387625,0.0
2174,0.08374829262548351,0.0
2175,0.02734140887811642,0.0
2176,0.07614004162882598,0.0
2177,0.045076495280815455,0.0
2178,0.008332158566909387,0.0
2179,0.02311802799216515,0.0
2180,0.38245917638237475,0.0
2181,3.9302489810988885,0.0
2182,6.7825714931097005,0.0
2183,-0.7357397813637063,0.0
2184,-1.5159781332291975,0.0
2185,1.547260181552494,0.0
2186,-0.770007045394388,0.0
2187,0.27471820386514295,0.0
2188,-0.00787044152845888,0.0
2189,-0.11042842782096673,0.0
2190,0.048186124715429574,0.0
2191,0.05842548133359095,0.0
2192,-0.03712307645473932,0.0
2193,-0.04476385662251772,0.0
2194,-0.10382001424001167,0.0
2195,-0.031614426787615155,0.0
2196,0.040790121797441646,0.0
2197,-0.016514504490604952,0.0
2198,-0.046213150877744295,0.0
2199,-0.06316696929630022,0.0
2200,0.3928736463450313,0.0
2201,3.9033370261865787,0.0
2202,6.605461310660569,0.0
2203,-0.8922880373600884,0.0
2204,-1.6584295517291587,0.0
2205,1.5079437833632072,0.0
2206,-0.8216239730934529,0.0
2207,0.21228925626489686,0.0
2208,-0.0067659945413940485,0.0
2209,-0.06755258873891176,0.0
2210,-0.0248353879319251,0.0
2211,-0.07630453800883684,0.0
2212,0.05163121560557364,0.0
2213,-0.11667136696133118,0.0
2214,-0.12787507734563075,0.0
2215,-0.08447053179189146,0.0
2216,-0.03924329918359693,0.0
2217,0.02762264832086895,0.0
2218,-0.07426224181567456,0.0
2219,-0.03907300911593623,0.0
2220,0.3551935045929761,0.0
2221,3.895258217632858,0.0
2222,6.661665491309282,0.0
2223,-0.917315538467108,0.0
2224,-1.6676600474951333,0.0
2225,1.350669339092372,0.0
2226,-0.8421851454591888,0.0
2227,0.28493116583225175,0.0
2228,0.021476711719009473,0.0
2229,-0.09684633233587142,0.0
2230,-0.032101633000416206,0.0
2231,-0.08955187522946312,0.0
2232,-0.05530523899663415,0.0
2233,-0.04859901575908132,0.0
2234,-0.05072099954045099,0.0
2235,0.03468050395063192,0.0
2236,0.030451656884321505,0.0
2237,-0.046709710860645896,0.0
2238,-0.09734630524149696,0.0
2239,0.009176494717838095,0.0
2240,0.32511536028075416,0.0
2241,3.833040115358309,0.0
2242,6.6747645035059,0.0
2243,-0.8618983706818335,0.0
2244,-1.667066284670991,0.0
2245,1.446358048383089,0.0
2246,-0.790735880106132,0.0
2247,0.12913199670349954,0.0
2248,0.011964095518911144,0.0
2249,-0.09712460813565829,0.0
2250,0.0005601170965301022,0.0
2251,-0.09309065945337432,0.0
2252,-0.029083714831621484,0.0
2253,-0.09439040607318165,0.0
2254,-0.052283697466583734,0.0
2255,-0.1250961935092348,0.0
2256,-0.11853886042133385,0.0
2257,-0.05517520668023534,0.0
2258,-0.12361082747826083,0.0
2259,-0.08069510728196913,0.0
2260,0.2647854693032342,0.0
2261,3.8580625198011336,0.0
2262,6.572743076274671,0.0
2263,-0.9757557952370834,0.0
2264,-1.697918220525899,0.0
2265,1.3646140208287711,0.0
2266,-0.8775720063739877,0.0
2267,0.26556308953515334,0.0
2268,-0.04583245873028405,0.0
2269,-0.044642560567597224,0.0
2270,0.06670571102238243,0.0
2271,-0.010017066224602383,0.0
2272,-0.05482657874967886,0.0
2273,-0.07704859897894173,0.0
2274,-0.02308520485702477,0.0
2275,-0.0684108263701575,0.0
2276,-0.04275861325642032,0.0
2277,0.05742176237325976,0.0
2278,-0.02452265845106749,0.0
2279,-0.08302040427644947,0.0
2280,0.2924270897929241,0.0
2281,3.8747264796343512,0.0
2282,6.604178403368977,0.0
2283,-0.8818321804053717,0.0
2284,-1.7625096798428659,0.0
2285,1.3782511711224292,0.0
2286,-0.9452375498084834,0.0
2287,0.14527583366748298,0.0
2288,-0.11510343276044509,0.0
2289,-0.038519336186362135,0.0
2290,-0.07788584828037264,0.0
2291,-0.12790721359952043,0.0
2292,-0.10719076432900772,0.0
2293,-0.09138273386352791,0.0
2294,-0.12310233375377179,0.0
2295,-0.021938126049215342,0.0
2296,-0.03548386182898863,0.0
2297,-0.046231346428093775,0.0
2298,-0.0887730948090563,0.0
2299,0.0034799592198945448,0.0
2300,0.3763657317285907,0.0
2301,3.865625611560774,0.0
2302,6.767260565677537,0.0
2303,-1.0274569789406685,0.0
2304,-1.5561160137129177,0.0
2305,1.3679988951028694,0.0
2306,-0.7958076892196081,0.0
2307,0.1613494203483528,0.0
2308,0.01686672733562107,0.0
2309,-0.15332884961268436,0.0
2310,-0.1574721529580207,0.0
2311,-0.04030059549938131,0.0
2312,-0.14780508830692302,0.0
2313,-0.024277759751239192,0.0
2314,-0.13931209011162754,0.0
2315,-0.0007614543316500771,0.0
2316,-0.0522764487482257,0.0
2317,-0.06792267955085886,0.0
2318,-0.005678436035800927,0.0
2319,-0.030501085664189964,0.0
2320,0.25866292940582036,0.0
2321,3.8406969915773153,0.0
2322,6.642617775061331,0.0
2323,-0.8497959110136131,0.0
2324,-1.617069954749574,0.0
2325,1.4166772521638842,0.0
2326,-0.7470797705688422,0.0
2327,0.17560251161422613,0.0
2328,0.03721192220566996,0.0
2329,-0.07926802846818388,0.0
2330,-0.12610379706679087,0.0
2331,-0.004672447044899206,0.0
2332,-0.07951267391531408,0.0
2333,-0.03810971939351185,0.0
2334,-0.13096232679433034,0.0
2335,0.040921583561424786,0.0
2336,-0.03210689104484593,0.0
2337,-0.029752449274971594,0.0
2338,-0.046830170122016596,0.0
2339,-0.07865823411541288,0.0
2340,0.30325087021349123,0.0
2341,3.849113088739026,0.0
2342,6.647277504667311,0.0
2343,-0.9982955509038091,0.0
2344,-1.5090321261360802,0.0
2345,1.3121848043653763,0.0
2346,-0.8816941092597789,0.0
2347,0.12327540588145655,0.0
2348,-0.08129547462272124,0.0
2349,0.05335580113959591,0.0
2350,-0.00823388696177539,0.0
2351,-0.02555410302012857,0.0
2352,-0.028110784660625606,0.0
2353,-0.02779723724381747,0.0
2354,-0.015650360074465592,0.0
2355,-0.007096417537716247,0.0
2356,-0.028372332844960418,0.0
2357,-0.06204003186266539,0.0
2358,0.0375835913431698,0.0
2359,-0.030129855806958802,0.0
2360,0.34400593085402986,0.0
2361,3.8411275222189265,0.0
2362,6.5871197197001115,0.0
2363,-0.9475335155985057,0.0
2364,-1.6985154965355689,0.0
2365,1.332764385893108,0.0
2366,-0.7279593901914725,0.0
2367,0.14549507370921164,0.0
2368,-0.02743331594812045,0.0
2369,0.020816264713065684,0.0
2370,-0.04383080660175258,0.0
2371,-0.0072386484735006106,0.0
2372,-0.06081496023745995,0.0
2373,0.07874430723860477,0.0
2374,0.0037006508643835055,0.0
2375,0.06784652171447955,0.0
2376,0.011137239591807863,0.0
2377,-0.04998897024017511,0.0
2378,0.05185126342281035,0.0
2379,-0.008360715575747277,0.0
2380,0.41998255837794135,0.0
2381,3.9553549187152774,0.0
2382,6.690601090059665,0.0
2383,-0.8891548023025454,0.0
2384,-1.5788090701016126,0.0
2385,1.461129980800245,0.0
2386,-0.6801319099844376,0.0
2387,0.21537826117538647,0.0
2388,0.09303896669183233,0.0
2389,-0.0012729783851541804,0.0
2390,0.04089874296701966,0.0
2391,0.026832645378364398,0.0
2392,-0.01482617678274958,0.0
2393,-0.0179089028459027,0.0
2394,-0.006118717546297853,0.0
2395,0.022388955361926196,0.0
2396,-0.043286823732639784,0.0
2397,-0.07367248465332889,0.0
2398,0.024659621067016187,0.0
2399,-0.029095523443127304,0.0
2400,0.3144925254065325,0.0
2401,3.9688359094678356,0.0
2402,6.6907213797360585,0.0
2403,-0.9468911051698674,0.0
2404,-1.6107337270910669,0.0
2405,1.5005468670489444,0.0
2406,-0.865686316235943,0.0
2407,0.2628436726844441,0.0
2408,0.08261944047902428,0.0
2409,-0.027197870449381482,0.0
2410,0.040640030552321287,0.0
2411,0.03135277454227611,0.0
2412,0.04645576071799039,0.0
2413,-0.00463081586847592,0.0
2414,0.035169408985309,0.0
2415,-0.01345618518363368,0.0
2416,0.04717460061914902,0.0
2417,0.07342775381023975,0.0
2418,0.03679709152952806,0.0
2419,0.06396488884971402,0.0
2420,0.45005112212409903,0.0
2421,3.9899764469641914,0.0
2422,6.866925443860802,0.0
2423,-0.8637119245767171,0.0
2424,-1.5170410212272707,0.0
2425,1.4812812747943638,0.0
2426,-0.7180289237168552,0.0
2427,0.22636198300426746,0.0
2428,0.04700524805267894,0.0
2429,0.07961722850071548,0.0
2430,0.12393333876282127,0.0
2431,0.1307078320027779,0.0
2432,-0.022131329820005298,0.0
2433,0.032797673614285226,0.0
2434,-0.01395233553052002,0.0
2435,0.014362083576894523,0.0
2436,0.023111631718374152,0.0
2437,0.0968416123528281,0.0
2438,-0.008783514032135814,0.0
2439,0.04616797805696191,0.0
2440,0.48271134426287243,0.0
2441,3.9629934102715034,0.0
2442,6.714941174535264,0.0
2443,-0.8684496675597351,0.0
2444,-1.5711109012630433,0.0
2445,1.442187235348768,0.0
2446,-0.7166196420847821,0.0
2447,0.23853021384775747,0.0
2448,0.013501409507558949,0.0
2449,-0.02123273916135513,0.0
2450,0.007674651056482594,0.0
2451,0.04340623562855004,0.0
2452,-0.041834481874961,0.0
2453,0.058539191578990485,0.0
2454,-0.011788822782479495,0.0
2455,0.07570079181628375,0.0
2456,-0.00815922501613614,0.0
2457,0.07002098642112072,0.0
2458,-0.0019277057657685892,0.0
2459,0.10114657191577728,0.0
2460,0.4401007265433939,0.0
2461,3.948410660274196,0.0
2462,6.723924338291723,0.0
2463,-0.8550693206079734,0.0
2464,-1.515611949062959,0.0
2465,1.3947064436612706,0.0
2466,-0.7946537597161113,0.0
2467,0.22124995816824947,0.0
2468,0.010305051979124574,0.0
2469,-0.06507797638164516,0.0
2470,-0.01908523493121608,0.0
2471,-0.04382117310318953,0.0
2472,-0.10972679501995923,0.0
2473,-0.0963746891812784,0.0
2474,-0.024856014358134518,0.0
2475,-0.011909207780503972,0.0
2476,0.0721089945636864,0.0
2477,0.02637727081584537,0.0
2478,0.028366105538137693,0.0
2479,-0.09964236497348902,0.0
2480,0.39441955852064375,0.0
2481,4.001707466913518,0.0
2482,6.704052112739956,0.0
2483,-0.8742699960887365,0.0
2484,-1.6021595088825913,0.0
2485,1.485836646223736,0.0
2486,-0.7424390247110794,0.0
2487,0.25816932841865226,0.0
2488,-0.03824847030807732,0.0
2489,-0.03877227347041722,0.0
2490,-0.05324029249808384,0.0
2491,-0.02070228678617115,0.0
2492,-0.027028602689267458,0.0
2493,-0.07209901554354288,0.0
2494,-0.05126886728867045,0.0
2495,-0.034317868531931424,0.0
2496,-0.0021655223548593255,0.0
2497,-0.01025545034542296,0.0
2498,-0.03551418453158198,0.0
2499,-0.06352456067355568,0.0
2500,0.23120256152099317,0.0
2501,3.9839905827833944,0.0
2502,6.571162652536144,0.0
2503,-0.946877086414634,0.0
2504,-1.5692778961475096,0.0
2505,1.4064653563939726,0.0
2506,-0.7733763100876262,0.0
2507,0.13014627666715706,0.0
2508,-0.03602858721009938,0.0
2509,-0.1909324045790251,0.0
2510,-0.008358350934320233,0.0
2511,-0.19137692542007523,0.0
2512,0.0011574903892978897,0.0
2513,-0.16905054757385807,0.0
2514,-0.03426862599812122,0.0
2515,-0.06398082214100898,0.0
2516,0.03957658127455126,0.0
2517,-0.04509500721483947,0.0
2518,0.08056246341845798,0.0
2519,-0.15248803137876074,0.0
2520,0.3404820466315492,0.0
2521,3.9418394638785217,0.0
2522,6.672434052681577,0.0
2523,-0.882258220997099,0.0
2524,-1.631788604877321,0.0
2525,1.38129117053555,0.0
2526,-0.8108756003508505,0.0
2527,0.26039706368990573,0.0
2528,-0.0809723281160114,0.0
2529,-0.13658136492317177,0.0
2530,-0.08536585218915832,0.0
2531,-0.025655390636273714,0.0
2532,-0.01112820492589435,0.0
2533,-0.018312085582073562,0.0
2534,-0.048632518353137824,0.0
2535,-0.07220603795173136,0.0
2536,-0.13347386321699672,0.0
2537,-0.06678431162686099,0.0
2538,-0.12904058304177995,0.0
2539,-0.08139891123197714,0.0
2540,0.2814070679457749,0.0
2541,3.938157845073888,0.0
2542,6.578334016921406,0.0
2543,-1.0512211121877293,0.0
2544,-1.6126558380528533,0.0
2545,1.3929697278511501,0.0
2546,-0.8533881179270868,0.0
2547,0.22540683804298334,0.0
2548,-0.00766785573482992,0.0
2549,-0.18968310026800156,0.0
2550,-0.1658892334451036,0.0
2551,-0.0411861646813339,0.0
2552,0.0008804312842526363,0.0
2553,-0.08530488377733592,0.0
2554,-0.06409968816518721,0.0
2555,-0.135801857752268,0.0
2556,-0.09459535240180901,0.0
2557,-0.09700650000403487,0.0
2558,-0.061922843423167145,0.0
2559,-0.0002953602322355309,0.0
2560,0.17605185761229636,0.0
2561,3.9454012247083936,0.0
2562,6.6052451865260915,0.0
2563,-0.999423168143728,0.0
2564,-1.594219406087083,0.0
2565,1.3554910091769765,0.0
2566,-0.8764300411909254,0.0
2567,0.1279344803876945,0.0
2568,-0.1429325580107419,0.0
2569,-0.2442650468556416,0.0
2570,-0.17634577900532555,0.0
2571,-0.14596908733199424,0.0
2572,-0.16370953920433165,0.0
2573,-0.11149051054469733,0.0
2574,-0.1790881215087814,0.0
2575,-0.012917681881579227,0.0
2576,-0.17525094586996343,0.0
2577,-0.08717278436615648,0.0
2578,-0.11346092218774545,0.0
2579,-0.14504585547019483,0.0
2580,0.3315664725565265,0.0
2581,3.8875579551258808,0.0
2582,6.731611823867921,0.0
2583,-1.0028705895496526,0.0
2584,-1.6071771113696673,0.0
2585,1.4269658565105179,0.0
2586,-0.8556148392872228,0.0
2587,0.11153142651931851,0.0
2588,-0.15157633811923982,0.0
2589,-0.206607385007188,0.0
2590,-0.04435358430386471,0.0
2591,-0.1293061916896638,0.0
2592,-0.12097305582475369,0.0
2593,-0.14965618300065908,0.0
2594,-0.11026813832243566,0.0
2595,-0.20859054148960282,0.0
2596,-0.09510983942210774,0.0
2597,-0.18117611400566608,0.0
2598,-0.14180023797482189,0.0
2599,-0.062039980796877434,0.0
2600,0.23195570946147098,0.0
2601,3.8759363771907247,0.0
2602,6.672640167374065,0.0
2603,-1.0810253796874556,0.0
2604,-1.5950665916649547,0.0
2605,1.432413053943106,0.0
2606,-0.8243995441554968,0.0
2607,0.11169482499193173,0.0
2608,-0.2021658002671681,0.0
2609,-0.08690108682185592,0.0
2610,-0.06987669378642052,0.0
2611,-0.02284971232749506,0.0
2612,-0.06675653580096044,0.0
2613,-0.06875778310773523,0.0
2614,0.013922776435199562,0.0
2615,0.0037072783890806996,0.0
2616,-0.034211665780877094,0.0
2617,-0.08473758416268032,0.0
2618,-0.028931601045406413,0.0
2619,-0.05480149810029776,0.0
2620,0.3482531965503089,0.0
2621,3.9975914928937217,0.0
2622,6.628943089869686,0.0
2623,-1.0368998447617646,0.0
2624,-1.5077570741868198,0.0
2625,1.458502830691583,0.0
2626,-0.7521531624417022,0.0
2627,0.14389014245253165,0.0
2628,-0.13930176642928904,0.0
2629,-0.03116544341575679,0.0
2630,-0.1359249004948433,0.0
2631,-0.1396990014938494,0.0
2632,-0.07678046282036044,0.0
2633,-0.021977538718947788,0.0
2634,0.00029854075220458326,0.0
2635,0.022985126285037065,0.0
2636,-0.0672289058302345,0.0
2637,-0.05588594833953774,0.0
2638,-0.10317182354436949,0.0
2639,-0.08215081158481477,0.0
2640,0.29232837209484336,0.0
2641,3.9228507354718287,0.0
2642,6.598652114438977,0.0
2643,-1.0402299347869308,0.0
2644,-1.569567875907871,0.0
2645,1.5355373607293519,0.0
2646,-0.7596508613093474,0.0
2647,0.2234638171241093,0.0
2648,-0.003349396211544328,0.0
2649,-0.06607421961889783,0.0
2650,0.11141980336328873,0.0
2651,-0.06468317145392125,0.0
2652,-0.014883269586685004,0.0
2653,-0.014633873482681737,0.0
2654,-0.12402697140210608,0.0
2655,-0.01733908696463765,0.0
2656,-0.07168693468079532,0.0
2657,-0.03016195839292691,0.0
2658,-0.059020558457212165,0.0
2659,-0.028220480495354496,0.0
2660,0.3047912737018181,0.0
2661,3.851894455520549,0.0
2662,6.661035458405024,0.0
2663,-0.9499497525295195,0.0
2664,-1.4726696955445635,0.0
2665,1.4715113741199248,0.0
2666,-0.7573268667426888,0.0
2667,0.13521013264615003,0.0
2668,0.012910868327265363,0.0
2669,-0.03280908373107811,0.0
2670,-0.049286044680490845,0.0
2671,0.049471739435126005,0.0
2672,-0.00195711111653666,0.0
2673,-0.10616860078261735,0.0
2674,-0.026333989867832718,0.0
2675,-0.03986806612822016,0.0
2676,0.012772943027192726,0.0
2677,0.01865070236715095,0.0
2678,-0.05799739099043069,0.0
2679,-0.034492348908592235,0.0
2680,0.34499120223726404,0.0
2681,4.002873950821169,0.0
2682,6.596727161043886,0.0
2683,-0.9501790155247625,0.0
2684,-1.5100423976058035,0.0
2685,1.405707973849613,0.0
2686,-0.8743351610551745,0.0
2687,0.23279404080780491,0.0
2688,0.028809207386902305,0.0
2689,0.010453327433241299,0.0
2690,0.03329862827241069,0.0
2691,0.0741952173762874,0.0
2692,0.12593878924686536,0.0
2693,0.023990485856530925,0.0
2694,0.060932043888526154,0.0
2695,0.047698150487873014,0.0
2696,0.015528459874438127,0.0
2697,0.047204542443313936,0.0
2698,-0.04996239678190542,0.0
2699,0.014292121217737968,0.0
2700,0.37592448894486274,0.0
2701,3.9907383446900417,0.0
2702,6.6658624736578584,0.0
2703,-1.0276049817375985,0.0
2704,-1.541457395932121,0.0
2705,1.378641556980586,0.0
2706,-0.7783311149810466,0.0
2707,0.2529320264104818,0.0
2708,-0.028895980163964843,0.0
2709,0.023691516942548133,0.0
2710,0.020691555846829447,0.0
2711,-0.08532369883796412,0.0
2712,-0.07669111458949968,0.0
2713,-0.03602424143315201,0.0
2714,0.1267643878244107,0.0
2715,0.0018231342306650588,0.0
2716,0.03988748476233991,0.0
2717,-0.01669432667211302,0.0
2718,-0.00434405731902705,0.0
2719,0.04737552803002913,0.0
2720,0.36288487958784343,0.0
2721,4.0759393150743914,0.0
2722,6.642714456211464,0.0
2723,-0.9451271640459104,0.0
2724,-1.4606537145308838,0.0
2725,1.4170319313664976,0.0
2726,-0.6949616545756846,0.0
2727,0.2504605928274462,0.0
2728,0.04635454892863653,0.0
2729,0.09547626853287643,0.0
2730,-0.04019769440361702,0.0
2731,0.010709730884350024,0.0
2732,0.015340909589796347,0.0
2733,0.0003941076897834468,0.0
2734,0.1646183102989486,0.0
2735,-0.02615821993656641,0.0
2736,0.050774285493035407,0.0
2737,-0.03478002994044647,0.0
2738,0.05924941307019561,0.0
2739,-0.04301855177813131,0.0
2740,0.45656625975200305,0.0
2741,4.0233295032312455,0.0
2742,6.704323564373031,0.0
2743,-1.0011708708576657,0.0
2744,-1.4028602223274147,0.0
2745,1.4935749176304622,0.0
2746,-0.7820534917017079,0.0
2747,0.2990720901685644,0.0
2748,-0.0060124355086836855,0.0
2749,0.0048053120498879436,0.0
2750,0.08203641952197613,0.0
2751,0.06492975660701267,0.0
2752,-0.04548561430763154,0.0
2753,-0.014109151032779897,0.0
2754,0.030001445150448787,0.0
2755,0.09640343668506951,0.0
2756,0.045473483988397186,0.0
2757,0.00956471577803298,0.0
2758,-0.009125729897620564,0.0
2759,0.03978258803727282,0.0
2760,0.4594466414348779,0.0
2761,3.9843189034295405,0.0
2762,6.615423166512922,0.0
2763,-1.0519550356869432,0.0
2764,-1.487845429467309,0.0
2765,1.4711908696571387,0.0
2766,-0.8174567167976345,0.0
2767,0.2046340624377422,0.0
2768,-0.04374682519003684,0.0
2769,-0.09339705964562048,0.0
2770,0.09051168403461847,0.0
2771,-0.006832683391884044,0.0
2772,0.09235316953722533,0.0
2773,0.03499097369044075,0.0
2774,0.06083041119136232,0.0
2775,0.044716641961739356,0.0
2776,0.04564243587704755,0.0
2777,0.05765474743702321,0.0
2778,-0.014136734232573604,0.0
2779,0.044543710162870565,0.0
2780,0.34398284379682514,0.0
2781,4.035766496908538,0.0
2782,6.5147981304394005,0.0
2783,-0.8601844047544114,0.0
2784,-1.5733097115635704,0.0
2785,1.5079072845295076,0.0
2786,-0.8160675626557068,0.0
2787,0.24088242385531627,0.0
2788,0.014857258692587664,0.0
2789,-0.04390708080782177,0.0
2790,-0.021079854259710422,0.0
2791,0.11215901446274679,0.0
2792,0.014943319671048613,0.0
2793,0.030743273670715485,0.0
2794,-0.030882288122277134,0.0
2795,0.05034757832995232,0.0
2796,-0.007439856627938765,0.0
2797,0.04687279561687433,0.0
2798,-0.04761456104179035,0.0
2799,-0.05365632872840861,0.0
2800,0.37293912928493256,0.0
2801,4.0283487876835355,0.0
2802,6.587388851563721,0.0
2803,-0.9909732090220189,0.0
2804,-1.5356820432210387,0.0
2805,1.5601811433822712,0.0
2806,-0.8482917611156722,0.0
2807,0.1845155507868501,0.0
2808,-0.03475542406836752,0.0
2809,-0.03844121241965493,0.0
2810,0.11822417240697862,0.0
2811,0.04144118739267676,0.0
2812,0.07734445402822389,0.0
2813,0.12302072148943383,0.0
2814,0.03560122219486216,0.0
2815,0.10582741608976201,0.0
2816,0.06509036105485128,0.0
2817,-0.00798120085481683,0.0
2818,-0.06262403453795226,0.0
2819,-0.06717284712452762,0.0
2820,0.3674790106754477,0.0
2821,3.920561997249675,0.0
2822,6.634855880810714,0.0
2823,-1.1396961056527872,0.0
2824,-1.4663417211962855,0.0
2825,1.3931226906347622,0.0
2826,-0.8733796541242804,0.0
2827,0.2140138806467672,0.0
2828,-0.011967804157983328,0.0
2829,-0.05088990206034561,0.0
2830,0.03207356160046866,0.0
2831,0.021918588061803357,0.0
2832,-0.030747483081804108,0.0
2833,0.04083697194054557,0.0
2834,0.00824244753871131,0.0
2835,0.0018907231595172522,0.0
2836,-0.10298614982372177,0.0
2837,-0.1187615764399724,0.0
2838,-0.114082822874505,0.0
2839,-0.13865377663523926,0.0
2840,0.25684846979816556,0.0
2841,3.9441623066430034,0.0
2842,6.595271316700228,0.0
2843,-1.06428967752968,0.0
2844,-1.548724543526068,0.0
2845,1.4151961993024902,0.0
2846,-0.8988099112343292,0.0
2847,0.15851322801854634,0.0
2848,0.0531978199312102,0.0
2849,-0.11029598525806852,0.0
2850,-0.054799482419209095,0.0
2851,-0.024594816712444484,0.0
2852,0.0056119562550558215,0.0
2853,-0.021273855875709517,0.0
2854,0.047044290034849154,0.0
2855,-0.008677438980885485,0.0
2856,0.0247142426365711,0.0
2857,-0.03189091914023576,0.0
2858,-0.05098728897481054,0.0
2859,-0.03775545474527571,0.0
2860,0.3381990868870585,0.0
2861,3.982947851572876,0.0
2862,6.541763578445803,0.0
2863,-1.126087306427369,0.0
2864,-1.5460471424123787,0.0
2865,1.3059807044532028,0.0
2866,-0.8236229399257351,0.0
2867,0.12223489864125706,0.0
2868,-0.08731757246509698,0.0
2869,-0.0818567864191369,0.0
2870,0.0033531224245470954,0.0
2871,-0.14122485816596234,0.0
2872,-0.08739790673756392,0.0
2873,-0.05549848951873718,0.0
2874,-0.029130889359105624,0.0
2875,-0.044527341887447065,0.0
2876,0.050267910811797115,0.0
2877,-0.017805361536717575,0.0
2878,-0.03453736793368852,0.0
2879,-0.05919574796391911,0.0
2880,0.36530231260142665,0.0
2881,3.9720387759793976,0.0
2882,6.605723925782077,0.0
2883,-1.0993047095361563,0.0
2884,-1.5696797502550295,0.0
2885,1.4720330148642853,0.0
2886,-0.8446535776192482,0.0
2887,0.24335271821912735,0.0
2888,-0.10796098866089826,0.0
2889,-0.05721184919349546,0.0
2890,0.02851826685403226,0.0
2891,0.006366097041876368,0.0
2892,-0.03629347933649945,0.0
2893,0.06664073615696915,0.0
2894,0.05863553960983643,0.0
2895,-0.06150025173400865,0.0
2896,0.014549341378401939,0.0
2897,0.0745093609573443,0.0
2898,0.026335918449093727,0.0
2899,0.0169213650642738,0.0
2900,0.4074908617572746,0.0
2901,4.024819297560189,0.0
2902,6.757081111433615,0.0
2903,-1.0106552395029182,0.0
2904,-1.347662655390975,0.0
2905,1.438489040522332,0.0
2906,-0.6499028981694873,0.0
2907,0.2040367783588487,0.0
2908,0.06719818188362135,0.0
2909,0.1011494214650581,0.0
2910,0.008363835107821932,0.0
2911,0.1014677526742655,0.0
2912,0.005906120881391037,0.0
2913,0.11267617898258565,0.0
2914,0.040396125242915616,0.0
2915,0.025089553044165228,0.0
2916,-0.002178855533692521,0.0
2917,0.03556044066909379,0.0
2918,-0.003395950703799574,0.0
2919,-0.05304854988782573,0.0
2920,0.4471939556500404,0.0
2921,3.9708989217300825,0.0
2922,6.621923841521469,0.0
2923,-1.1090844893461462,0.0
2924,-1.5471391078557488,0.0
2925,1.4073169686384104,0.0
2926,-0.7487280045137925,0.0
2927,0.23771359742733011,0.0
2928,-0.05975659762961773,0.0
2929,-0.008504408304495913,0.0
2930,0.026902452656860237,0.0
2931,-0.0015403647014094086,0.0
2932,-0.009548290743911057,0.0
2933,-0.05110475803964856,0.0
2934,0.06855473282758714,0.0
2935,0.035357370511168176,0.0
2936,0.0367745028607135,0.0
2937,-0.04875328897225476,0.0
2938,-0.007483911110054937,0.0
2939,0.015373448190129545,0.0
2940,0.314493235122033,0.0
2941,4.075787285432781,0.0
2942,6.610605220585851,0.0
2943,-1.091031314388373,0.0
2944,-1.4935860465999995,0.0
2945,1.4180988841205333,0.0
2946,-0.792473005056099,0.0
2947,0.16954900260061734,0.0
2948,-0.06972099423952453,0.0
2949,-0.04053337273891577,0.0
2950,-0.00825682683125997,0.0
2951,-0.001150006109772405,0.0
2952,0.011218076751016794,0.0
2953,-0.10380198735264619,0.0
2954,-0.1328727973715114,0.0
2955,-0.056727891425173746,0.0
2956,-0.04657444058512125,0.0
2957,-0.05801327985831278,0.0
2958,-0.0320985543503555,0.0
2959,-0.07031292042068031,0.0
2960,0.3908057943583724,0.0
2961,4.051879317701606,0.0
2962,6.688363826079519,0.0
2963,-1.070344215018532,0.0
2964,-1.4103168767909764,0.0
2965,1.4295551749122581,0.0
2966,-0.816479258849472,0.0
2967,0.27453722679994463,0.0
2968,-0.07191610466326906,0.0
2969,-0.03758934547016042,0.0
2970,0.06091948614495246,0.0
2971,0.026920162543556763,0.0
2972,0.050701767086768476,0.0
2973,0.0051248422331863185,0.0
2974,0.05056852066790582,0.0
2975,0.053193719213008306,0.0
2976,-0.03250350639552147,0.0
2977,0.07365982269608558,0.0
2978,0.05782859902771119,0.0
2979,0.027365796541995748,0.0
2980,0.32200831989293976,0.0
2981,3.9544830355096767,0.0
2982,6.575706736359557,0.0
2983,-1.075111247252472,0.0
2984,-1.4223501821174998,0.0
2985,1.422275139138967,0.0
2986,-0.8416338994289201,0.0
2987,0.17992450949788258,0.0
2988,0.018557230800652323,0.0
2989,-0.1233356882056594,0.0
2990,-0.07392858264111662,0.0
2991,-0.07245884058169355,0.0
2992,-0.06509028637304588,0.0
2993,-0.029803749536783993,0.0
2994,-0.021832143830039563,0.0
2995,-0.14365543209845283,0.0
2996,-0.034583400136031124,0.0
2997,-0.05828605952691515,0.0
2998,-0.020668989031569024,0.0
2999,-0.0874930326745979,0.0
3000,0.32364171384364315,0.0
3001,4.022065081301451,0.0
3002,6.6101472846800515,0.0
3003,-1.1403420883977529,0.0
3004,-1.5625827021308256,0.0
3005,1.4041029276838664,0.0
3006,-0.9173599337636568,0.0
3007,0.16321090289222107,0.0
3008,-0.10451168553251727,0.0
3009,-0.08147629199877059,0.0
3010,-0.10184955455564051,0.0
3011,-0.03707242485679362,0.0
3012,-0.07038395802041886,0.0
3013,-0.07050398662093116,0.0
3014,-0.06275307406910288,0.0
3015,-0.05016042558794927,0.0
3016,-0.16054249350316885,0.0
3017,-0.06267248002158898,0.0
3018,-0.029070892686051418,0.0
3019,-0.05713301415008273,0.0
3020,0.33437823298089475,0.0
3021,4.125483052541962,0.0
3022,6.555234410611766,0.0
3023,-1.150181982957679,0.0
3024,-1.5249242847019762,0.0
3025,1.43717601732954,0.0
3026,-0.779173210664418,0.0
3027,0.10483360643498962,0.0
3028,-0.0887545646537847,0.0
3029,-0.05947747822422171,0.0
3030,-0.03388137776404231,0.0
3031,0.024322624695378776,0.0
3032,-0.0834336578236935,0.0
3033,-0.03636379625589535,0.0
3034,-0.09401477215058496,0.0
3035,-0.08195442465943449,0.0
3036,-0.03675839063494131,0.0
3037,-0.05710751119337957,0.0
3038,-0.1525801523048823,0.0
3039,-0.0754762937719576,0.0
3040,0.3837846096462826,0.0
3041,3.9541205118744616,0.0
3042,6.4734747580391785,0.0
3043,-1.0833336100257214,0.0
3044,-1.5227219327475785,0.0
3045,1.4438075249195705,0.0
3046,-0.8736655546180854,0.0
3047,0.13462258567176913,0.0
3048,-0.06411935230937083,0.0
3049,-0.0958824789734862,0.0
3050,0.06864203507971627,0.0
3051,0.04257288209725351,0.0
3052,-0.08432163293319803,0.0
3053,0.03893071727127416,0.0
3054,-0.08651861769553826,0.0
3055,-0.06383126403340421,0.0
3056,-0.03888178764798287,0.0
3057,-0.06433469621263993,0.0
3058,-0.12969421740873374,0.0
3059,-0.11667041725297077,0.0
3060,0.31862669044378455,0.0
3061,4.074814739485076,0.0
3062,6.5696612877960305,0.0
3063,-1.1024794257451818,0.0
3064,-1.4463918163139176,0.0
3065,1.4018382040065867,0.0
3066,-0.777452263770453,0.0
3067,0.22936766013897475,0.0
3068,-0.13563094833267636,0.0
3069,-0.05132848498364878,0.0
3070,0.0878844554181501,0.0
3071,0.0011857192145039303,0.0
3072,-0.13218163372672298,0.0
3073,-0.11105519664432112,0.0
3074,-0.09917293511367718,0.0
3075,-0.07531464616774503,0.0
3076,-0.040249681165844084,0.0
3077,-0.12136705023645503,0.0
3078,0.014531960364310953,0.0
3079,-0.04522921227308441,0.0
3080,0.27480804426531913,0.0
3081,3.982070625803101,0.0
3082,6.567001701404554,0.0
3083,-1.1393902156357578,0.0
3084,-1.4716198124144013,0.0
3085,1.2589341623509487,0.0
3086,-0.8066481844692512,0.0
3087,0.1403692081684489,0.0
3088,-0.20239129143377432,0.0
3089,-0.0020076113531476147,0.0
3090,-0.027516103460787963,0.0
3091,-0.13672032146573077,0.0
3092,-0.16002428302817268,0.0
3093,-0.06337422246761992,0.0
3094,0.0006798780565806101,0.0
3095,-0.12509080003429296,0.0
3096,-0.04766455107063422,0.0
3097,-0.021228552688080826,0.0
3098,-0.03874507607030713,0.0
3099,-0.04698757084228957,0.0
3100,0.30946983714103016,0.0
3101,4.010511675937208,0.0
3102,6.609135272752885,0.0
3103,-1.1785161024591735,0.0
3104,-1.4908573747830787,0.0
3105,1.4224710275620769,0.0
3106,-0.8984038614353395,0.0
3107,0.08781577454765437,0.0
3108,-0.04113661417492291,0.0
3109,-0.10035749215690434,0.0
3110,-0.04291403847358622,0.0
3111,-0.13328525080090808,0.0
3112,-0.12415503763394521,0.0
3113,-0.09592034121857246,0.0
3114,-0.06628645448473029,0.0
3115,-0.14242913236262522,0.0
3116,-0.0971462362886534,0.0
3117,-0.0691898205465917,0.0
3118,-0.029625666298333485,0.0
3119,-0.05694880683510045,0.0
3120,0.2999385238099346,0.0
3121,4.069442768014778,0.0
3122,6.619377078086041,0.0
3123,-1.1247444187510829,0.0
3124,-1.5142873732416244,0.0
3125,1.3567500856413022,0.0
3126,-0.8708678853635498,0.0
3127,0.18357506303937546,0.0
3128,-0.01972418917168691,0.0
3129,-0.06984935455240769,0.0
3130,-0.021900480827889056,0.0
3131,-0.016003430764314125,0.0
3132,-0.06659561399790322,0.0
3133,0.005298449272979681,0.0
3134,-0.0804670966825061,0.0
3135,-0.010971431630326305,0.0
3136,-0.04736624882399487,0.0
3137,0.014377478768880007,0.0
3138,0.008453292392585467,0.0
3139,-0.015207869065892152,0.0
3140,0.3399390592160524,0.0
3141,4.048177354826792,0.0
3142,6.600577290681503,0.0
3143,-1.1803664533250218,0.0
3144,-1.5003258802555248,0.0
3145,1.3720361202823212,0.0
3146,-0.7078439991279656,0.0
3147,0.17980693945892007,0.0
3148,0.028157694547025616,0.0
3149,-0.12316007343840972,0.0
3150,-0.08739016499335472,0.0
3151,-0.07170244231674701,0.0
3152,-0.08630567135518225,0.0
3153,-0.06110091844073791,0.0
3154,-0.017815476755654026,0.0
3155,0.011546935025784803,0.0
3156,0.03504060288660421,0.0
3157,-0.02145728301423383,0.0
3158,-0.0318541996945356,0.0
3159,-0.041468545511393805,0.0
3160,0.40666283355260396,0.0
3161,4.094886828256498,0.0
3162,6.62820329400101,0.0
3163,-1.1989240196440716,0.0
3164,-1.5196304158811074,0.0
3165,1.3584926233467491,0.0
3166,-0.782828117780857,0.0
3167,0.1249851904099386,0.0
3168,-0.08052400202990719,0.0
3169,-0.040803284149120767,0.0
3170,-0.054748771004908846,0.0
3171,-0.05493879499976374,0.0
3172,-0.052925467624713084,0.0
3173,-0.03610348429505791,0.0
3174,-0.08963841343478647,0.0
3175,-0.07144616064761533,0.0
3176,-0.11663074400527607,0.0
3177,-0.019558387157435707,0.0
3178,-0.02181277028617113,0.0
3179,-0.009666710542945458,0.0
3180,0.4192415967705634,0.0
3181,4.01864894134607,0.0
3182,6.636991534700988,0.0
3183,-1.110398184984574,0.0
3184,-1.4108744591376177,0.0
3185,1.4079893753508899,0.0
3186,-0.7310415801624255,0.0
3187,0.16274281891022402,0.0
3188,-0.011392655403793531,0.0
3189,-0.053757968795182104,0.0
3190,-0.02962439222760773,0.0
3191,-0.009257734982825982,0.0
3192,-0.04368056954561669,0.0
3193,-0.06559335662249675,0.0
3194,-0.03521408957471906,0.0
3195,0.04889499323067556,0.0
3196,-0.08974139635989131,0.0
3197,0.007008923423326374,0.0
3198,-0.03589286577394189,0.0
3199,-0.01910695992737233,0.0
3200,0.3392235311742642,0.0
3201,4.146764790800554,0.0
3202,6.555040607535259,0.0
3203,-1.1252155723621653,0.0
3204,-1.469843390182797,0.0
3205,1.437268524246477,0.0
3206,-0.7391834269848725,0.0
3207,0.25669257674558393,0.0
3208,-0.042671940976930146,0.0
3209,-0.062260304573082945,0.0
3210,0.14603492639225965,0.0
3211,0.002949989147225875,0.0
3212,-0.01836856744663003,0.0
3213,-0.0795093738256134,0.0
3214,0.017983540198217962,0.0
3215,-0.02499749034525645,0.0
3216,-0.08229808395486746,0.0
3217,-0.021354668960108722,0.0
3218,-0.09874867118035201,0.0
3219,-0.007644414975838211,0.0
3220,0.38860709783097497,0.0
3221,4.0253272964602935,0.0
3222,6.567775684424678,0.0
3223,-1.2223191830737645,0.0
3224,-1.529532737147827,0.0
3225,1.340196758259139,0.0
3226,-0.93168077292856,0.0
3227,0.24213946021001476,0.0
3228,-0.10479498835457093,0.0
3229,-0.07355438133575037,0.0
3230,-0.02260553120013363,0.0
3231,0.07565096357234162,0.0
3232,0.06664417867452649,0.0
3233,0.07597053841250802,0.0
3234,-0.007232273840592912,0.0
3235,-0.05015135777949329,0.0
3236,0.023891791546190463,0.0
3237,0.029488403694798,0.0
3238,0.06295519819831474,0.0
3239,0.02003102267264032,0.0
3240,0.3949372457072018,0.0
3241,4.059778232864675,0.0
3242,6.611828563326524,0.0
3243,-1.138607418308871,0.0
3244,-1.4049529685856923,0.0
3245,1.3181068178214357,0.0
3246,-0.8352417956498563,0.0
3247,0.19398629199260325,0.0
3248,0.0435947548061636,0.0
3249,0.016290076234448198,0.0
3250,-0.013185347370202626,0.0
3251,-0.04885745126456427,0.0
3252,0.001652271732150483,0.0
3253,-0.16383924118258347,0.0
3254,-0.08029479717697788,0.0
3255,-0.0942358077767651,0.0
3256,-0.04136437579781775,0.0
3257,-0.023765869769559217,0.0
3258,-0.030840908063158007,0.0
3259,-0.0402539004286784,0.0
3260,0.3860864106453758,0.0
3261,4.007601745737848,0.0
3262,6.550023666385959,0.0
3263,-1.104864343488252,0.0
3264,-1.5005882339840524,0.0
3265,1.376678279279452,0.0
3266,-0.8358187797503802,0.0
3267,0.22690130681097725,0.0
3268,-0.05675251390505229,0.0
3269,-0.037386263625640556,0.0
3270,-0.0005239845720400177,0.0
3271,-0.08714543632367269,0.0
3272,-0.12969172632165876,0.0
3273,-0.05202735582369471,0.0
3274,-0.07372560885278823,0.0
3275,-0.0956543604672793,0.0
3276,-0.11179895971029565,0.0
3277,-0.08312859272667802,0.0
3278,0.013721383730755862,0.0
3279,-0.11866899219405772,0.0
3280,0.319648176562948,0.0
3281,4.028215373000282,0.0
3282,6.534776246981492,0.0
3283,-1.2491528408841281,0.0
3284,-1.4534433425753763,0.0
3285,1.465604053318163,0.0
3286,-0.8084895102896027,0.0
3287,0.1904116872801452,0.0
3288,-0.11910887087836128,0.0
3289,-0.09337864509396683,0.0
3290,-0.14764735255720016,0.0
3291,-0.005104454825873239,0.0
3292,-0.13144249609702024,0.0
3293,0.018551839821336562,0.0
3294,-0.040984587246640586,0.0
3295,-0.16297089273518225,0.0
3296,-0.04957898263940495,0.0
3297,0.013113932837911763,0.0
3298,0.0038673825327337832,0.0
3299,-0.016988590110223925,0.0
3300,0.3782935684158443,0.0
3301,3.9863641143120008,0.0
3302,6.50973656493109,0.0
3303,-1.2879110311904471,0.0
3304,-1.4802392315438302,0.0
3305,1.354339562265867,0.0
3306,-0.8665809350415542,0.0
3307,0.10658355880427745,0.0
3308,-0.051673782110647284,0.0
3309,-0.10609677203182608,0.0
3310,0.015517408801265238,0.0
3311,0.006629034337675227,0.0
3312,-0.03656763725433927,0.0
3313,-0.03520753110390752,0.0
3314,-0.04950470335869886,0.0
3315,-0.0684733232171542,0.0
3316,-0.12643433689172004,0.0
3317,-0.04153412705839555,0.0
3318,-0.08744319866453917,0.0
3319,-0.0409669258063676,0.0
3320,0.4246136709047936,0.0
3321,4.112991956456203,0.0
3322,6.511223454904787,0.0
3323,-1.2635015244458467,0.0
3324,-1.4000933422200328,0.0
3325,1.3941430496105303,0.0
3326,-0.8842817717745209,0.0
3327,0.23052167472684126,0.0
3328,-0.05231545312191,0.0
3329,-0.11494020368052388,0.0
3330,-0.026739299456928645,0.0
3331,-0.08005082760185356,0.0
3332,-0.12676016014312802,0.0
3333,-0.11099492714985008,0.0
3334,-0.09442105647547393,0.0
3335,-0.13818880665998626,0.0
3336,-0.09237749737142624,0.0
3337,-0.12337413929540979,0.0
3338,-0.1198187097910083,0.0
3339,-0.02364529650095694,0.0
3340,0.26228540606116857,0.0
3341,3.9588793262572137,0.0
3342,6.412743946520012,0.0
3343,-1.2112062582973098,0.0
3344,-1.514428850588236,0.0
3345,1.2096083128862118,0.0
3346,-0.8748861598877706,0.0
3347,0.03867049930932803,0.0
3348,-0.15541046961931593,0.0
3349,-0.09218729863891449,0.0
3350,-0.030339433292860134,0.0
3351,-0.04899168199029014,0.0
3352,0.010770772300757271,0.0
3353,-0.14074128956164564,0.0
3354,-0.047729939555850705,0.0
3355,-0.007073593491444818,0.0
3356,-0.0027150193891977495,0.0
3357,-0.01692248324509566,0.0
3358,-0.04741143094085709,0.0
3359,-0.016921126561432263,0.0
3360,0.39241159788793994,0.0
3361,3.9678644137157244,0.0
3362,6.510989619568644,0.0
3363,-1.2588116837389982,0.0
3364,-1.3300458020928139,0.0
3365,1.3932455477101349,0.0
3366,-0.8919840858463198,0.0
3367,0.18086261024102526,0.0
3368,0.004315412137152863,0.0
3369,-0.15268310886567688,0.0
3370,-0.043544358682058,0.0
3371,-0.016502271888422494,0.0
3372,-0.05435826062938858,0.0
3373,-0.10400269869921236,0.0
3374,-0.03764477282759201,0.0
3375,-0.07857137670031929,0.0
3376,-0.024972599542301695,0.0
3377,-0.034209956201803546,0.0
3378,-0.012149226149309411,0.0
3379,-0.05294200991947084,0.0
3380,0.37176525884667855,0.0
3381,4.1126194000891605,0.0
3382,6.489104783630673,0.0
3383,-1.1418271582215014,0.0
3384,-1.382131683743623,0.0
3385,1.3410565981071043,0.0
3386,-0.8832707087972766,0.0
3387,0.16149850703921861,0.0
3388,0.011932630601740365,0.0
3389,-0.06753782210293188,0.0
3390,0.016363346051854445,0.0
3391,-0.0945999520346542,0.0
3392,-0.0595865766049027,0.0
3393,-0.04150239725150506,0.0
3394,-0.022234703845913195,0.0
3395,-0.10479481747880577,0.0
3396,-0.009861209938988546,0.0
3397,-0.03125304661896634,0.0
3398,-0.07705991947820881,0.0
3399,-0.020456827111199276,0.0
3400,0.34083365042873065,0.0
3401,4.197315382494799,0.0
3402,6.505524772851414,0.0
3403,-1.1907570624186254,0.0
3404,-1.424504082970195,0.0
3405,1.335365642765179,0.0
3406,-0.9434168709218763,0.0
3407,0.1147969843752128,0.0
3408,-0.09225163233883296,0.0
3409,-0.02631004637771947,0.0
3410,-0.032097332916508445,0.0
3411,-0.08608774032708974,0.0
3412,-0.09706556549534451,0.0
3413,-0.06020521497133445,0.0
3414,-0.020512936137802328,0.0
3415,0.02447236975538222,0.0
3416,0.028471712515643288,0.0
3417,-0.0038665120605830185,0.0
3418,-0.029263573135888878,0.0
3419,-0.06601022590478266,0.0
3420,0.36133002421236,0.0
3421,4.043284672939996,0.0
3422,6.545730102242095,0.0
3423,-1.22396009607038,0.0
3424,-1.5381456895140777,0.0
3425,1.435850362147073,0.0
3426,-0.8066871511552668,0.0
3427,0.22471538134776534,0.0
3428,0.05379650396684767,0.0
3429,-0.002998369328292697,0.0
3430,0.09193337556969411,0.0
3431,0.05150400253249787,0.0
3432,-0.05306525680952557,0.0
3433,0.05726517446241537,0.0
3434,0.11422745324485073,0.0
3435,-0.05279232196117531,0.0
3436,-0.040313456575204486,0.0
3437,0.01442117947394872,0.0
3438,0.061586062471812794,0.0
3439,0.02652047079718816,0.0
3440,0.376361825015282,0.0
3441,4.1401863251192,0.0
3442,6.536448033699439,0.0
3443,-1.291999455550465,0.0
3444,-1.4911604803951994,0.0
3445,1.3351145337711987,0.0
3446,-0.8386469300113094,0.0
3447,0.2344284059600601,0.0
3448,-0.12108177255957722,0.0
3449,-0.1635249741463587,0.0
3450,-0.03829037510004638,0.0
3451,-0.0829861293970362,0.0
3452,-0.021498771391223706,0.0
3453,-0.05160838956850761,0.0
3454,-0.03807591378127677,0.0
3455,-0.10810109808458138,0.0
3456,-0.013279144339279587,0.0
3457,0.021017961268264686,0.0
3458,-0.04798984148618078,0.0
3459,-0.02831819213063022,0.0
3460,0.3839233411600224,0.0
3461,4.13480627383666,0.0
3462,6.73706186391682,0.0
3463,-1.2311736487852039,0.0
3464,-1.3493827823922278,0.0
3465,1.453789636927703,0.0
3466,-0.7502813316888213,0.0
3467,0.2065170920433279,0.0
3468,-0.007762232976702459,0.0
3469,-0.0707178042871449,0.0
3470,0.029077992566440374,0.0
3471,-0.06811333537757486,0.0
3472,0.03739378900168188,0.0
3473,-0.05140228417278551,0.0
3474,-0.06495789621066486,0.0
3475,-0.04239144524351249,0.0
3476,-0.02719908060373802,0.0
3477,-0.07208387060750128,0.0
3478,0.034387351517486564,0.0
3479,-0.09004251834860451,0.0
3480,0.39512591207524667,0.0
3481,4.084105015170357,0.0
3482,6.5706058381204775,0.0
3483,-1.2172503839421713,0.0
3484,-1.3866932284028788,0.0
3485,1.2953764918459514,0.0
3486,-0.8377385465329792,0.0
3487,0.19824483761869027,0.0
3488,-0.11975531516938479,0.0
3489,-0.07537907291163787,0.0
3490,-0.03000581279738287,0.0
3491,0.052624328845751016,0.0
3492,0.008715020224892102,0.0
3493,-0.06929810955439117,0.0
3494,-0.007222237660276919,0.0
3495,-0.04514571983064662,0.0
3496,-0.09669153009654588,0.0
3497,0.010453472588991347,0.0
3498,0.0991435375303481,0.0
3499,-0.02428580802157087,0.0
3500,0.44489991175049676,0.0
3501,4.202158532896633,0.0
3502,6.598402174166018,0.0
3503,-1.1292719310021284,0.0
3504,-1.375185547573062,0.0
3505,1.4276482739273582,0.0
3506,-0.81485667732818,0.0
3507,0.21661285603341512,0.0
3508,-0.01843410232329175,0.0
3509,-0.09264520695925486,0.0
3510,-0.0050669421851569085,0.0
3511,-0.08610669884980361,0.0
3512,-0.027107311673013494,0.0
3513,-0.046723348525493286,0.0
3514,-0.057682409046361245,0.0
3515,-0.12091513825708644,0.0
3516,-0.10468596264923898,0.0
3517,-0.12429221997549847,0.0
3518,-0.03842095711544756,0.0
3519,-0.17493569358128608,0.0
3520,0.3451334633575146,0.0
3521,4.012377879251604,0.0
3522,6.493197278288071,0.0
3523,-1.3228871614324982,0.0
3524,-1.389260891058454,0.0
3525,1.3095392970197015,0.0
3526,-0.8947453891416763,0.0
3527,0.19887801863263732,0.0
3528,-0.04201406885271462,0.0
3529,-0.11269647599850162,0.0
3530,-0.0476559324617116,0.0
3531,-0.05451465404217452,0.0
3532,-0.012915842845238008,0.0
3533,-0.09967577159802637,0.0
3534,-0.07251627598314907,0.0
3535,0.002527295943288904,0.0
3536,-0.029358902944481333,0.0
3537,-0.1082156832914497,0.0
3538,-0.16307464355784396,0.0
3539,-0.0925783246376861,0.0
3540,0.38440749278242303,0.0
3541,4.116663736660522,0.0
3542,6.485938013968597,0.0
3543,-1.2824075878436256,0.0
3544,-1.4143558611707419,0.0
3545,1.2865973846050185,0.0
3546,-0.8468910406464777,0.0
3547,0.2155526965755489,0.0
3548,-0.15715190250868516,0.0
3549,-0.04860370463339396,0.0
3550,0.046255096231619004,0.0
3551,-0.045320193461730794,0.0
3552,-0.05785211824692102,0.0
3553,-0.12764584078879626,0.0
3554,-0.07481580619941883,0.0
3555,-0.04891709576992216,0.0
3556,0.017758842972093403,0.0
3557,0.005533026783109414,0.0
3558,-0.15650056132886217,0.0
3559,-0.061095852139063336,0.0
3560,0.3870103728775571,0.0
3561,4.1142636831331165,0.0
3562,6.529793989900657,0.0
3563,-1.314035332070577,0.0
3564,-1.411586717365069,0.0
3565,1.3886249927877143,0.0
3566,-0.9066074548495109,0.0
3567,0.2270617159073283,0.0
3568,0.030517656501407288,0.0
3569,-0.06353738517720205,0.0
3570,-0.014246034281909943,0.0
3571,-0.034040120777723185,0.0
3572,0.07466380646982373,0.0
3573,-0.044210565992544575,0.0
3574,-0.04983212535941556,0.0
3575,0.06355440589111155,0.0
3576,0.02079066578487768,0.0
3577,0.038027897510062456,0.0
3578,-0.006645933450641107,0.0
3579,-0.08969305781737502,0.0
3580,0.40767257329960394,0.0
3581,4.085818151089931,0.0
3582,6.4982072638472665,0.0
3583,-1.1854994799128202,0.0
3584,-1.3442496345932118,0.0
3585,1.3363983640994008,0.0
3586,-0.8538753233254728,0.0
3587,0.1791699706042745,0.0
3588,-0.050731695939065874,0.0
3589,-0.026473540281162652,0.0
3590,-0.01230875367312682,0.0
3591,-0.052087083363400476,0.0
3592,-0.02489771702670549,0.0
3593,-0.059786112293890616,0.0
3594,-0.07176040426831448,0.0
3595,0.0075761617022269065,0.0
3596,-0.14870945571746055,0.0
3597,-0.0030368355390042318,0.0
3598,-0.019945355357743923,0.0
3599,-0.02806348627726384,0.0
3600,0.41608604687738876,0.0
3601,4.052602287547704,0.0
3602,6.472997594814799,0.0
3603,-1.1963283306308952,0.0
3604,-1.4392661722031486,0.0
3605,1.3468523499591962,0.0
3606,-0.7899795740145126,0.0
3607,0.16825975625898315,0.0
3608,-0.0778194988604222,0.0
3609,-0.019735628718961916,0.0
3610,0.030079258794440233,0.0
3611,0.04252891037871255,0.0
3612,-0.019532880293306153,0.0
3613,-0.052674952296933,0.0
3614,-0.030269227708410985,0.0
3615,-0.06842303876781679,0.0
3616,0.03292246931154783,0.0
3617,0.10311750410512797,0.0
3618,0.0077165604319988975,0.0
3619,0.00035380459571951223,0.0
3620,0.5051090724556764,0.0
3621,4.06887038359342,0.0
3622,6.617331640827795,0.0
3623,-1.1956335941525909,0.0
3624,-1.3112766103923204,0.0
3625,1.3330901658651781,0.0
3626,-0.8134991877378285,0.0
3627,0.2185351693077025,0.0
3628,-0.05761701739272504,0.0
3629,0.05658070210881122,0.0
3630,-0.03857400875421608,0.0
3631,-0.018024583821973333,0.0
3632,0.07163148097617489,0.0
3633,0.037494755529819054,0.0
3634,0.04663273457584957,0.0
3635,-0.009367926980048274,0.0
3636,-0.07112178267652765,0.0
3637,-0.04682270125698501,0.0
3638,0.0010127379016901267,0.0
3639,-0.0585741798180944,0.0
3640,0.425938436973431,0.0
3641,4.149047258917218,0.0
3642,6.657183852502734,0.0
3643,-1.2232877242803009,0.0
3644,-1.3131505390423366,0.0
3645,1.4533235465227248,0.0
3646,-0.8166047543431644,0.0
3647,0.2061043601318321,0.0
3648,0.02139489314728607,0.0
3649,-0.06218894105709334,0.0
3650,0.0482582782713104,0.0
3651,0.006704535441886709,0.0
3652,0.04831811134464162,0.0
3653,0.0015638375484375439,0.0
3654,-0.03178653341414077,0.0
3655,0.02111908978111475,0.0
3656,0.1065862458619885,0.0
3657,0.030239136701675853,0.0
3658,-0.04892652606303648,0.0
3659,0.008637416725943651,0.0
3660,0.45840954976118253,0.0
3661,4.228816867793468,0.0
3662,6.616566428639932,0.0
3663,-1.1576893222972218,0.0
3664,-1.3690711116360743,0.0
3665,1.3707584308449035,0.0
3666,-0.7523199280085939,0.0
3667,0.24057224979219086,0.0
3668,-0.008864275872947457,0.0
3669,0.0029444292224090974,0.0
3670,-0.03681071810025816,0.0
3671,-0.005348287970238622,0.0
3672,0.000406542549123555,0.0
3673,-0.041016761675271754,0.0
3674,0.07258038854413043,0.0
3675,-1.3443152495896254e-05,0.0
3676,0.024218746827500824,0.0
3677,0.004502087868629431,0.0
3678,0.06182808451996932,0.0
3679,0.09088131513204238,0.0
3680,0.52433043360708,0.0
3681,4.184954659161153,0.0
3682,6.568976635045072,0.0
3683,-1.1427866081463927,0.0
3684,-1.3689568098687457,0.0
3685,1.463693351377308,0.0
3686,-0.8110490588899604,0.0
3687,0.34659760002409906,0.0
3688,-0.04770309912376579,0.0
3689,0.037173417654486805,0.0
3690,0.043493301579871246,0.0
3691,0.015818680018162716,0.0
3692,0.061558736537377104,0.0
3693,0.08685417079678576,0.0
3694,0.03119328117052534,0.0
3695,0.03654305843266169,0.0
3696,0.05274479146987906,0.0
3697,0.06166479725139087,0.0
3698,0.08237589021107039,0.0
3699,0.03855978691628716,0.0
3700,0.5892936322625305,0.0
3701,4.138615964924663,0.0
3702,6.5432335810074225,0.0
3703,-1.1350722900945318,0.0
3704,-1.3495588659555517,0.0
3705,1.422119430507152,0.0
3706,-0.7484587643474528,0.0
3707,0.3487869958487392,0.0
3708,0.013178440599304002,0.0
3709,0.011734850197053334,0.0
3710,0.05830315172379835,0.0
3711,0.028637966482668222,0.0
3712,0.00023152535931948715,0.0
3713,-0.02799170502845129,0.0
3714,0.035638109035319644,0.0
3715,0.054143630677862264,0.0
3716,0.01606015610552096,0.0
3717,0.041668728507942634,0.0
3718,0.01884598987445791,0.0
3719,0.05197156157187603,0.0
3720,0.47736259544514903,0.0
3721,4.232100073230859,0.0
3722,6.629764915747872,0.0
3723,-1.1575345214319834,0.0
3724,-1.2307880631518002,0.0
3725,1.4874430079641607,0.0
3726,-0.7352231251375785,0.0
3727,0.29587485086735715,0.0
3728,-0.06810165416546193,0.0
3729,-0.036923771081782276,0.0
3730,0.06582572905568476,0.0
3731,0.08585654775106447,0.0
3732,0.08963193268017623,0.0
3733,0.04614734165324566,0.0
3734,0.09306561122689076,0.0
3735,-0.014882998109047344,0.0
3736,-0.020526927054874952,0.0
3737,0.03764984936939176,0.0
3738,-0.02033306324642628,0.0
3739,-0.0659728894564746,0.0
3740,0.415260966177797,0.0
3741,4.179170363473983,0.0
3742,6.548773062005098,0.0
3743,-1.1554261561614343,0.0
3744,-1.2296395015866217,0.0
3745,1.432292884165647,0.0
3746,-0.7933898627796564,0.0
3747,0.3228437239310192,0.0
3748,-0.08487511403163281,0.0
3749,0.08894953493289415,0.0
3750,0.10281831074290532,0.0
3751,-0.02413152770924163,0.0
3752,0.03955591739504722,0.0
3753,0.07788039229296262,0.0
3754,0.023868030259879144,0.0
3755,0.13276258540233973,0.0
3756,0.012876568594483693,0.0
3757,0.013443449548652595,0.0
3758,-0.02090176766306545,0.0
3759,-0.057681977513427844,0.0
3760,0.4322606360538125,0.0
3761,4.138225810201903,0.0
3762,6.494731779191147,0.0
3763,-1.2451985813643067,0.0
3764,-1.2766618534088359,0.0
3765,1.3546354998850818,0.0
3766,-0.777197524803431,0.0
3767,0.1849325568822997,0.0
3768,-0.03042567757851702,0.0
3769,-0.0025109453740667287,0.0
3770,0.001726096718726769,0.0
3771,-0.03508209151115234,0.0
3772,0.01313295631457742,0.0
3773,0.03536346024521373,0.0
3774,0.027643518934347803,0.0
3775,0.02635226386729634,0.0
3776,0.06042859865679899,0.0
3777,0.024609821704459998,0.0
3778,0.019699216988398768,0.0
3779,0.014971371796790277,0.0
3780,0.44719964722321176,0.0
3781,4.198176366468818,0.0
3782,6.542872553962398,0.0
3783,-1.2501451608389185,0.0
3784,-1.304868809071182,0.0
3785,1.365109997254881,0.0
3786,-0.7545864025116004,0.0
3787,0.17522464929002798,0.0
3788,-0.03008745478332602,0.0
3789,-0.011283356127587789,0.0
3790,-0.018423473203765958,0.0
3791,-0.029730496064302964,0.0
3792,0.07125533818688934,0.0
3793,0.06876959206282618,0.0
3794,-4.6826763486704226e-05,0.0
3795,0.03330004746054072,0.0
3796,0.07864085645431754,0.0
3797,0.10430408655362575,0.0
3798,-0.011441288912569361,0.0
3799,0.08438475033135028,0.0
3800,0.4829149494661614,0.0
3801,4.361312644484114,0.0
3802,6.693714409923571,0.0
3803,-1.1318224027129624,0.0
3804,-1.1667679927958503,0.0
3805,1.504402811319285,0.0
3806,-0.6804018637576024,0.0
3807,0.3523076070499041,0.0
3808,0.016456395915478816,0.0
3809,0.07960602464306529,0.0
3810,0.004419532899351153,0.0
3811,0.06387033693997607,0.0
3812,0.07399443170599317,0.0
3813,0.10513317894626362,0.0
3814,0.07417819022558239,0.0
3815,0.14089441174397455,0.0
3816,-0.000819294553331712,0.0
3817,0.04914355523482653,0.0
3818,0.072861882032943,0.0
3819,0.05325202954672143,0.0
3820,0.47005188728089436,0.0
3821,4.2744515127941085,0.0
3822,6.5335274032672865,0.0
3823,-1.2436922567219757,0.0
3824,-1.2790479137499955,0.0
3825,1.5668006583379235,0.0
3826,-0.6891032215748845,0.0
3827,0.2607560329454169,0.0
3828,0.07829217850581523,0.0
3829,0.0723340334929761,0.0
3830,0.09782706053404784,0.0
3831,0.12270501768379358,0.0
3832,0.00035649772715275196,0.0
3833,0.06536880833557622,0.0
3834,0.13402395585582508,0.0
3835,0.09665661209454443,0.0
3836,0.01032219827502489,0.0
3837,-0.04556206422345273,0.0
3838,0.06783979666199769,0.0
3839,0.052069058234666316,0.0
3840,0.4350129074844157,0.0
3841,4.199942658834607,0.0
3842,6.570620452239419,0.0
3843,-1.175087916690126,0.0
3844,-1.2240704304652712,0.0
3845,1.474819995033899,0.0
3846,-0.7497470904216869,0.0
3847,0.3322135584523631,0.0
3848,-0.021287739155011927,0.0
3849,0.08575460290812975,0.0
3850,0.0828627080131532,0.0
3851,0.04583059627700073,0.0
3852,0.048515023409095685,0.0
3853,0.03273484224306611,0.0
3854,0.08331890566705516,0.0
3855,0.03033530276683913,0.0
3856,-0.003145072877802517,0.0
3857,0.08527551105262318,0.0
3858,0.10394358946774943,0.0
3859,0.06776583360401044,0.0
3860,0.5438634613497015,0.0
3861,4.277333588289013,0.0
3862,6.606222205941023,0.0
3863,-1.2452683505278974,0.0
3864,-1.2367478613734675,0.0
3865,1.3808637556620509,0.0
3866,-0.7201539798831852,0.0
3867,0.426041407357599,0.0
3868,0.09745985192944312,0.0
3869,0.014155311016510713,0.0
3870,0.17854670762114136,0.0
3871,0.07736711693673982,0.0
3872,0.1170793875220264,0.0
3873,-0.0002498692610966441,0.0
3874,0.09963116474047448,0.0
3875,0.0887983986118943,0.0
3876,-0.03675587499425627,0.0
3877,0.028720445286088407,0.0
3878,0.10532653284759294,0.0
3879,0.032358735339113924,0.0
3880,0.4370133850582418,0.0
3881,4.153957857371497,0.0
3882,6.584272947895565,0.0
3883,-1.2367290402362237,0.0
3884,-1.3758071971893167,0.0
3885,1.4341450714748571,0.0
3886,-0.7190024039195927,0.0
3887,0.27885211763809503,0.0
3888,0.010416904351925799,0.0
3889,0.012316216490430472,0.0
3890,0.00019195475469685475,0.0
3891,0.10358505466368409,0.0
3892,0.1564660090737493,0.0
3893,0.11043760698884528,0.0
3894,0.08223415424654607,0.0
3895,0.06056264309548191,0.0
3896,0.07004275445661412,0.0
3897,0.0203228680800005,0.0
3898,0.08066686208794902,0.0
3899,-0.001901330180954744,0.0
3900,0.5867971164925309,0.0
3901,4.202622660092791,0.0
3902,6.527320574355095,0.0
3903,-1.2453883789441085,0.0
3904,-1.2684743113368815,0.0
3905,1.5291107789020935,0.0
3906,-0.773482347457627,0.0
3907,0.28310914356664496,0.0
3908,0.09919120137768536,0.0
3909,0.1342773018482592,0.0
3910,-0.05747156210251436,0.0
3911,-0.012278659775584094,0.0
3912,0.04351677928960157,0.0
3913,0.07455403096525628,0.0
3914,0.18914773056667744,0.0
3915,0.04287175286591842,0.0
3916,0.08861580467116237,0.0
3917,0.101390028239047,0.0
3918,0.12504912384365707,0.0
3919,0.060037963449120935,0.0
3920,0.5584806883722461,0.0
3921,4.215800422155904,0.0
3922,6.580288494027651,0.0
3923,-1.2101888589989431,0.0
3924,-1.2131004567130221,0.0
3925,1.4255601894723382,0.0
3926,-0.735872328478297,0.0
3927,0.2792161555993947,0.0
3928,0.04773889805273454,0.0
3929,0.047600139272504595,0.0
3930,0.16337219827131286,0.0
3931,0.01048996806881225,0.0
3932,0.03183505217168065,0.0
3933,0.08799439230475611,0.0
3934,0.038396979578854,0.0
3935,0.10376538171504537,0.0
3936,0.08553421467293598,0.0
3937,0.016322841881308968,0.0
3938,0.06332860481462341,0.0
3939,0.07394191773462366,0.0
3940,0.5152707882050395,0.0
3941,4.224619640139735,0.0
3942,6.527534912919468,0.0
3943,-1.2164524633989569,0.0
3944,-1.1727173706873661,0.0
3945,1.3701050247600828,0.0
3946,-0.8064124312308332,0.0
3947,0.30604030803950294,0.0
3948,0.025348132698986264,0.0
3949,0.04601885522635314,0.0
3950,0.02119751320207879,0.0
3951,0.06294527114487412,0.0
3952,0.0062170126086332,0.0
3953,0.06880466619469244,0.0
3954,0.0680562104447505,0.0
3955,0.1307326439068693,0.0
3956,-0.04674214019580816,0.0
3957,0.06999732814403481,0.0
3958,0.01996015606395346,0.0
3959,0.0615363702094299,0.0
3960,0.5137136643110082,0.0
3961,4.337492910678459,0.0
3962,6.529924285914279,0.0
3963,-1.3005253918539177,0.0
3964,-1.1607501198808592,0.0
3965,1.4442790330357431,0.0
3966,-0.7774947367479168,0.0
3967,0.3150375487687337,0.0
3968,-0.03670080986234891,0.0
3969,-0.06807299897950933,0.0
3970,-0.034500118347719835,0.0
3971,0.09557885872353131,0.0
3972,0.07101340839790343,0.0
3973,-0.019104851808199666,0.0
3974,0.037259003231918546,0.0
3975,-0.006806321079670271,0.0
3976,0.027258537680434028,0.0
3977,0.027514442616329602,0.0
3978,0.04312121110121329,0.0
3979,0.09870082465230223,0.0
3980,0.465169177756977,0.0
3981,4.222135872711533,0.0
3982,6.524153242169349,0.0
3983,-1.2847631538187312,0.0
3984,-1.377589753287345,0.0
3985,1.2841660186142525,0.0
3986,-0.6973979892688505,0.0
3987,0.2750407985468429,0.0
3988,0.040252621761761045,0.0
3989,0.0678126645595419,0.0
3990,0.025905497159744915,0.0
3991,0.06457567647161394,0.0
3992,0.01200043427369213,0.0
3993,0.09444473186731804,0.0
3994,0.04148214777394138,0.0
3995,0.037974542641147094,0.0
3996,0.04910758971857594,0.0
3997,-0.023776897812900162,0.0
3998,0.01869662548986438,0.0
3999,0.03848233909960176,0.0
4000,0.46335100200324864,0.0
4001,4.313307317105324,0.0
4002,6.569290643008062,0.0
4003,-1.354629075610517,0.0
4004,-1.2451997112428672,0.0
4005,1.4475528377755458,0.0
4006,-0.7918576708050894,0.0
4007,0.28752524261930934,0.0
4008,-0.008843973782388586,0.0
4009,-0.07437429242961897,0.0
4010,0.07083055593830817,0.0
4011,-0.06899564435820041,0.0
4012,0.04848246618204467,0.0
4013,0.05666287093521488,0.0
4014,-0.002778132805742149,0.0
4015,-0.04742738930513959,0.0
4016,0.04386696363196876,0.0
4017,-0.009235556845523192,0.0
4018,-0.019494895033604173,0.0
4019,0.03329890119224342,0.0
4020,0.46246475381709135,0.0
4021,4.206191923630635,0.0
4022,6.49569018505044,0.0
4023,-1.3963299545858716,0.0
4024,-1.3030595834950782,0.0
4025,1.380548815976526,0.0
4026,-0.88838831186013,0.0
4027,0.21797329731861848,0.0
4028,0.06722158481170545,0.0
4029,0.0385019063063236,0.0
4030,0.014369618815316126,0.0
4031,-0.011442475611605808,0.0
4032,-0.04906965875912504,0.0
4033,0.027140940049299202,0.0
4034,-0.017709673958061896,0.0
4035,-0.0001934397480972041,0.0
4036,0.0019153475353341637,0.0
4037,-0.07511643446371716,0.0
4038,-0.06405567559437035,0.0
4039,-0.09628463033954507,0.0
4040,0.36134004731129504,0.0
4041,4.239568611854219,0.0
4042,6.482934297535234,0.0
4043,-1.3896364175584386,0.0
4044,-1.3280622187115172,0.0
4045,1.343404590060011,0.0
4046,-0.817218209513489,0.0
4047,0.13170536649483355,0.0
4048,-0.14627373864646867,0.0
4049,-0.07960636620584255,0.0
4050,-0.059444231379575906,0.0
4051,-0.14881969884742446,0.0
4052,-0.0906954196709521,0.0
4053,-0.08016598450651999,0.0
4054,-0.051519947239373205,0.0
4055,-0.12157884517923906,0.0
4056,-0.04548202279304619,0.0
4057,-0.00031868047800290983,0.0
4058,-0.04634025012424457,0.0
4059,-0.05834572653308458,0.0
4060,0.35830588468586694,0.0
4061,4.206759133216402,0.0
4062,6.520207424050724,0.0
4063,-1.444945886268214,0.0
4064,-1.226313539972652,0.0
4065,1.3640608603607318,0.0
4066,-0.8145050579340851,0.0
4067,0.21845192352121767,0.0
4068,-0.057587411585907675,0.0
4069,-0.09635686930562756,0.0
4070,-0.00782063070451653,0.0
4071,-0.02506057414449642,0.0
4072,-0.03268020842835268,0.0
4073,-0.043377855332858456,0.0
4074,0.038943847933465225,0.0
4075,0.03752938863551514,0.0
4076,0.03719174624694297,0.0
4077,0.019149293289594655,0.0
4078,0.007764086262312187,0.0
4079,0.03431748756168494,0.0
4080,0.5588381209020763,0.0
4081,4.243186087699881,0.0
4082,6.430663345687849,0.0
4083,-1.4123586177509555,0.0
4084,-1.221125838792239,0.0
4085,1.2800771681328496,0.0
4086,-0.7700474409450503,0.0
4087,0.1916881961332309,0.0
4088,-0.030126049409345157,0.0
4089,-0.09763541556537014,0.0
4090,0.002984379670852003,0.0
4091,0.027882583871031468,0.0
4092,0.05337690126154941,0.0
4093,0.05090228982955345,0.0
4094,-0.04416179100281635,0.0
4095,0.004325749898296967,0.0
4096,-0.03463415222658746,0.0
4097,0.03368715909310513,0.0
4098,0.01842081266506674,0.0
4099,-0.03610605744798263,0.0
4100,0.442538224437721,0.0
4101,4.1717475694538475,0.0
4102,6.559180954225379,0.0
4103,-1.3421733424042346,0.0
4104,-1.2456544487638506,0.0
4105,1.4000069976512493,0.0
4106,-0.7469868816673167,0.0
4107,0.23674862380768996,0.0
4108,-0.08693948215161915,0.0
4109,-0.006159585679710011,0.0
4110,0.053636695006332585,0.0
4111,-0.0023746640911682148,0.0
4112,-0.0012052643334911455,0.0
4113,-0.016965522388354515,0.0
4114,0.09252901870846347,0.0
4115,0.011374994089263832,0.0
4116,-0.07694463077034423,0.0
4117,0.07125610654040575,0.0
4118,-0.004460578775414666,0.0
4119,0.008314860220934854,0.0
4120,0.5103048612892014,0.0
4121,4.201673138450699,0.0
4122,6.496365623804892,0.0
4123,-1.3666561356575084,0.0
4124,-1.272523988069739,0.0
4125,1.3664502214899843,0.0
4126,-0.8281303463450903,0.0
4127,0.2273686455646188,0.0
4128,-0.09344276921022318,0.0
4129,0.022896720412265543,0.0
4130,-0.05188897335576624,0.0
4131,-0.03672176271066421,0.0
4132,0.008228685318220737,0.0
4133,0.03172380729269287,0.0
4134,0.07646029720682865,0.0
4135,-0.029939801385062186,0.0
4136,-0.07335711430683574,0.0
4137,-0.07624067210203023,0.0
4138,-0.009669636774837159,0.0
4139,0.04385900880351592,0.0
4140,0.488110218230017,0.0
4141,4.317557969089709,0.0
4142,6.461336850419001,0.0
